0	7	-6	-19	-3	-1	2	0	3	22	60	-3	5	0	-1	1	17.300000	10.900000	6.900000
0	7	-6	-19	-3	-1	2	0	3	22	60	-3	5	0	-1	1	17.300000	10.900000	6.900000
0	7	-6	-19	-3	-1	2	0	-5	-20	-76	-28	-3	5	7	2	28.800000	10.900000	6.900000
0	7	-6	-19	-3	-1	2	0	-5	11	66	-5	-4	-4	-4	-2	57.600000	10.900000	6.900000
0	7	-6	-19	-3	-1	2	0	-3	1	-49	-21	-3	2	0	-3	57.600000	10.900000	6.900000
-1	0	-19	-4	-4	-1	1	0	-3	1	-49	-21	-3	2	0	-3	57.600000	10.900000	6.900000
-1	0	-19	-4	-4	-1	1	0	-3	1	-49	-21	-3	2	0	-3	57.600000	10.900000	6.900000
-1	0	-19	-4	-4	-1	1	0	-2	-11	-81	-10	-6	-7	-1	-2	71.100000	9.000000	6.900000
0	4	29	24	1	-2	-2	1	-2	-11	-81	-10	-6	-7	-1	-2	71.100000	9.000000	6.900000
0	4	29	24	1	-2	-2	1	-2	-12	-58	6	0	7	-3	-4	80.700000	10.900000	6.900000
0	4	29	24	1	-2	-2	1	-15	-25	-87	-35	-12	-15	-10	-10	80.700000	10.900000	6.900000
0	4	29	24	1	-2	-2	1	-6	-13	-4	1	-2	-2	-2	-1	88.400000	10.900000	6.900000
0	4	29	24	1	-2	-2	1	-6	-13	-4	1	-2	-2	-2	-1	88.400000	10.900000	6.900000
-3	1	11	3	-1	-2	-1	-1	-6	-13	-4	1	-2	-2	-2	-1	88.400000	10.900000	6.900000
-3	1	11	3	-1	-2	-1	-1	9	29	-16	9	2	-6	1	1	94.200000	10.900000	6.900000
-3	1	11	3	-1	-2	-1	-1	2	6	29	7	1	-6	-5	2	94.200000	10.900000	6.900000
-3	1	11	3	-1	-2	-1	-1	8	0	-50	21	9	5	4	3	94.200000	9.000000	6.900000
-3	1	11	3	-1	-2	-1	-1	8	0	-50	21	9	5	4	3	94.200000	9.000000	6.900000
0	9	68	22	0	-2	-5	-1	8	0	-50	21	9	5	4	3	94.200000	9.000000	6.900000
0	9	68	22	0	-2	-5	-1	-3	-17	-13	2	-2	-3	-3	-3	94.200000	9.000000	6.900000
0	9	68	22	0	-2	-5	-1	-6	-11	29	-5	-3	-1	-1	-4	96.100000	9.000000	6.900000
0	9	68	22	0	-2	-5	-1	-6	-11	29	-5	-3	-1	-1	-4	96.100000	9.000000	6.900000
0	9	68	22	0	-2	-5	-1	-2	-10	43	13	1	-1	-3	3	96.100000	9.000000	6.900000
-2	3	22	8	1	-1	-1	-1	-2	-10	43	13	1	-1	-3	3	96.100000	9.000000	6.900000
-2	3	22	8	1	-1	-1	-1	14	26	-22	16	7	12	9	7	96.100000	9.000000	6.900000
-2	3	22	8	1	-1	-1	-1	4	1	28	12	5	1	4	4	96.100000	10.900000	6.900000
-2	3	22	8	1	-1	-1	-1	-6	-7	-51	-28	-8	-7	-4	-7	96.100000	10.900000	6.900000
1	7	2	-12	-2	2	3	2	-6	-7	-51	-28	-8	-7	-4	-7	96.100000	10.900000	6.900000
1	7	2	-12	-2	2	3	2	1	-5	-55	4	2	-7	-1	-1	98.000000	9.000000	6.900000
1	7	2	-12	-2	2	3	2	1	-5	-55	4	2	-7	-1	-1	98.000000	9.000000	6.900000
1	7	2	-12	-2	2	3	2	2	3	37	10	-3	2	1	0	98.000000	9.000000	6.900000
3	8	30	-9	1	0	-1	0	2	3	37	10	-3	2	1	0	98.000000	9.000000	6.900000
3	8	30	-9	1	0	-1	0	-4	3	3	-26	-10	-7	-4	-5	98.000000	9.000000	6.900000
3	8	30	-9	1	0	-1	0	-4	-7	37	6	1	-4	-3	1	98.000000	9.000000	6.900000
3	8	30	-9	1	0	-1	0	-1	0	-51	1	1	6	3	2	98.000000	9.000000	6.900000
-2	-9	-26	-12	-1	1	0	0	-1	0	-51	1	1	6	3	2	98.000000	9.000000	6.900000
-2	-9	-26	-12	-1	1	0	0	-9	-24	-19	-23	-10	-2	-4	-6	98.000000	9.000000	6.900000
-2	-9	-26	-12	-1	1	0	0	-10	3	-20	6	-1	-11	-3	-3	98.000000	9.000000	6.900000
-2	-9	-26	-12	-1	1	0	0	-10	3	-20	6	-1	-11	-3	-3	98.000000	9.000000	6.900000
-2	-9	-26	-12	-1	1	0	0	-10	-25	-7	-28	-6	-5	-3	-7	98.000000	9.000000	6.900000
-2	-9	-26	-12	-1	1	0	0	-10	-25	-7	-28	-6	-5	-3	-7	98.000000	9.000000	6.900000
-1	3	16	-2	-2	-4	-1	-1	-10	-25	-7	-28	-6	-5	-3	-7	98.000000	9.000000	6.900000
-1	3	16	-2	-2	-4	-1	-1	3	26	45	18	4	2	2	1	98.000000	9.000000	6.900000
-1	3	16	-2	-2	-4	-1	-1	5	7	12	10	2	-1	2	3	98.000000	9.000000	6.900000
-1	3	16	-2	-2	-4	-1	-1	5	7	12	10	2	-1	2	3	98.000000	9.000000	6.900000
-1	2	44	16	0	2	2	0	5	7	12	10	2	-1	2	3	98.000000	9.000000	6.900000
-1	2	44	16	0	2	2	0	2	3	1	16	2	4	-1	-1	98.000000	9.000000	6.900000
-1	2	44	16	0	2	2	0	-2	-3	-54	-19	-7	-7	-5	-3	98.000000	10.900000	6.900000
-1	2	44	16	0	2	2	0	-2	-12	34	-13	-7	-8	-5	-2	98.000000	10.900000	6.900000
-1	2	44	16	0	2	2	0	-2	-12	34	-13	-7	-8	-5	-2	98.000000	10.900000	6.900000
-2	0	21	11	-1	-1	-3	-2	-2	-12	34	-13	-7	-8	-5	-2	98.000000	10.900000	6.900000
-2	0	21	11	-1	-1	-3	-2	-11	-8	-16	-9	-6	-3	0	-3	98.000000	10.900000	6.900000
-2	0	21	11	-1	-1	-3	-2	0	7	-12	1	-4	-1	-5	-3	98.000000	10.900000	6.900000
-2	0	21	11	-1	-1	-3	-2	0	7	-12	1	-4	-1	-5	-3	98.000000	10.900000	6.900000
-2	-2	-3	-8	-3	-2	-2	-1	0	7	-12	1	-4	-1	-5	-3	98.000000	10.900000	6.900000
-2	-2	-3	-8	-3	-2	-2	-1	-3	-13	-41	-9	1	-3	-4	-1	98.000000	10.900000	6.900000
-2	-2	-3	-8	-3	-2	-2	-1	8	9	70	19	7	6	2	2	98.000000	10.900000	6.900000
-2	-2	-3	-8	-3	-2	-2	-1	5	4	-17	-10	-2	-5	-3	3	96.100000	9.000000	6.900000
-2	-5	1	-1	2	-2	-1	-3	5	4	-17	-10	-2	-5	-3	3	96.100000	9.000000	6.900000
-2	-5	1	-1	2	-2	-1	-3	15	44	14	27	10	14	5	3	96.100000	10.900000	6.900000
-2	-5	1	-1	2	-2	-1	-3	-5	-10	-3	19	-4	-3	-3	-4	96.100000	10.900000	6.900000
-2	-5	1	-1	2	-2	-1	-3	-5	-10	-3	19	-4	-3	-3	-4	92.300000	10.900000	6.900000
-2	-5	1	-1	2	-2	-1	-3	-6	-13	25	-15	-8	-5	-2	-3	92.300000	10.900000	6.900000
-3	-4	-7	-2	-4	-1	0	-2	-6	-13	25	-15	-8	-5	-2	-3	92.300000	10.900000	6.900000
-3	-4	-7	-2	-4	-1	0	-2	-6	7	-4	1	3	2	-1	-3	80.700000	9.000000	6.900000
-3	-4	-7	-2	-4	-1	0	-2	-6	7	-4	1	3	2	-1	-3	80.700000	9.000000	6.900000
-3	-4	-7	-2	-4	-1	0	-2	0	-3	25	6	1	-4	-4	-1	80.700000	9.000000	6.900000
1	4	17	36	2	-1	1	1	0	-3	25	6	1	-4	-4	-1	80.700000	9.000000	6.900000
1	4	17	36	2	-1	1	1	5	10	21	0	1	-4	1	1	40.300000	9.000000	6.900000
1	4	17	36	2	-1	1	1	0	-11	-14	0	1	-1	-2	-1	40.300000	9.000000	6.900000
1	4	17	36	2	-1	1	1	0	-11	-14	0	1	-1	-2	-1	13.400000	10.900000	6.900000
-4	-4	-2	-13	-4	-2	0	-3	0	-11	-14	0	1	-1	-2	-1	13.400000	10.900000	6.900000
-4	-4	-2	-13	-4	-2	0	-3	-6	-15	-12	-36	-9	-6	-1	0	13.400000	10.900000	6.900000
-4	-4	-2	-13	-4	-2	0	-3	1	-11	14	-4	0	7	4	1	9.600000	9.000000	6.900000
-4	-4	-2	-13	-4	-2	0	-3	5	15	65	2	-2	5	6	3	7.600000	9.000000	6.900000
-4	-4	-2	-13	-4	-2	0	-3	5	15	65	2	-2	5	6	3	7.600000	9.000000	6.900000
-1	-8	-20	-26	-4	-1	0	-1	5	15	65	2	-2	5	6	3	7.600000	9.000000	6.900000
-1	-8	-20	-26	-4	-1	0	-1	-9	-3	57	12	2	-5	-5	-3	7.600000	9.000000	6.900000
-1	-8	-20	-26	-4	-1	0	-1	0	2	-92	-18	1	0	-1	-3	7.600000	10.900000	6.900000
-1	-8	-20	-26	-4	-1	0	-1	5	7	27	14	4	1	-1	0	7.600000	10.900000	6.900000
0	-4	-46	-10	-1	-1	-1	-1	5	7	27	14	4	1	-1	0	7.600000	10.900000	6.900000
0	-4	-46	-10	-1	-1	-1	-1	-1	-7	-31	9	-1	1	1	-2	5.700000	10.900000	6.900000
0	-4	-46	-10	-1	-1	-1	-1	-3	-9	12	3	-1	-2	-3	-3	5.700000	10.900000	6.900000
0	-4	-46	-10	-1	-1	-1	-1	-2	2	-28	10	2	-4	-4	-2	5.700000	10.900000	6.900000
1	2	5	32	10	3	1	0	-2	2	-28	10	2	-4	-4	-2	5.700000	10.900000	6.900000
1	2	5	32	10	3	1	0	-2	2	-28	10	2	-4	-4	-2	5.700000	9.000000	6.900000
1	2	5	32	10	3	1	0	-7	-18	-78	-19	-7	0	-4	-5	5.700000	9.000000	6.900000
1	2	5	32	10	3	1	0	0	11	37	16	2	-1	-1	-1	5.700000	9.000000	6.900000
1	2	5	32	10	3	1	0	0	-4	-40	-13	-5	-13	-3	3	5.700000	9.000000	6.900000
-3	2	1	39	10	0	0	0	0	-4	-40	-13	-5	-13	-3	3	5.700000	9.000000	6.900000
-3	2	1	39	10	0	0	0	1	-8	-60	-1	2	-1	0	0	5.700000	9.000000	6.900000
-3	2	1	39	10	0	0	0	-1	-5	-2	-5	-2	9	2	0	5.700000	9.000000	6.900000
-3	2	1	39	10	0	0	0	-1	-5	-2	-5	-2	9	2	0	3.800000	9.000000	6.900000
-2	1	23	23	5	-1	-2	0	-1	-5	-2	-5	-2	9	2	0	3.800000	9.000000	6.900000
-2	1	23	23	5	-1	-2	0	14	46	75	17	5	1	-1	5	3.800000	9.000000	6.900000
-2	1	23	23	5	-1	-2	0	-1	-10	1	5	0	4	0	-3	5.700000	10.900000	6.900000
-2	1	23	23	5	-1	-2	0	-6	-9	-37	-5	-2	5	2	-3	5.700000	10.900000	6.900000
-1	-3	-16	19	1	-1	-4	-2	-6	-9	-37	-5	-2	5	2	-3	5.700000	10.900000	6.900000
-1	-3	-16	19	1	-1	-4	-2	-6	-9	-37	-5	-2	5	2	-3	3.800000	9.000000	6.900000
-1	-3	-16	19	1	-1	-4	-2	-5	-12	-89	-9	-3	-2	0	-2	3.800000	9.000000	6.900000
-1	-3	-16	19	1	-1	-4	-2	3	18	30	7	3	-9	-3	-2	3.800000	9.000000	6.900000
2	-5	-35	12	2	0	-2	-2	3	18	30	7	3	-9	-3	-2	3.800000	9.000000	6.900000
2	-5	-35	12	2	0	-2	-2	-4	12	18	-6	-2	4	0	-2	3.800000	9.000000	6.900000
2	-5	-35	12	2	0	-2	-2	4	10	127	20	1	0	3	4	3.800000	9.000000	6.900000
2	-5	-35	12	2	0	-2	-2	-2	7	-14	-24	-8	-9	-4	0	3.800000	9.000000	6.900000
2	-5	-35	12	2	0	-2	-2	-3	-13	-1	-5	0	-1	-1	-3	3.800000	9.000000	6.900000
-1	-8	6	-35	-3	-1	1	-1	-3	-13	-1	-5	0	-1	-1	-3	3.800000	9.000000	6.900000
-1	-8	6	-35	-3	-1	1	-1	2	9	26	7	0	-1	1	-1	3.800000	9.000000	6.900000
-1	-8	6	-35	-3	-1	1	-1	4	23	21	-11	-9	1	-5	-3	3.800000	9.000000	6.900000
-1	-8	6	-35	-3	-1	1	-1	-7	-20	8	-16	-7	-7	-2	0	3.800000	9.000000	6.900000
-2	-1	-31	-4	-3	0	0	-1	-7	-20	8	-16	-7	-7	-2	0	3.800000	9.000000	6.900000
-2	-1	-31	-4	-3	0	0	-1	5	-2	-87	6	3	2	0	1	3.800000	9.000000	6.900000
-2	-1	-31	-4	-3	0	0	-1	-7	-14	-16	-7	-4	-8	-4	-3	3.800000	9.000000	6.900000
-2	-1	-31	-4	-3	0	0	-1	-7	-14	-16	-7	-4	-8	-4	-3	3.800000	9.000000	6.900000
-2	-1	-31	-4	-3	0	0	-1	-3	-8	-57	-31	-7	0	0	-2	3.800000	9.000000	6.900000
0	2	7	-15	-4	0	-4	-1	-3	-8	-57	-31	-7	0	0	-2	3.800000	9.000000	6.900000
0	2	7	-15	-4	0	-4	-1	-7	-18	-40	4	4	14	6	-2	3.800000	9.000000	6.900000
0	2	7	-15	-4	0	-4	-1	9	34	93	34	3	1	2	5	3.800000	9.000000	6.900000
0	2	7	-15	-4	0	-4	-1	-7	-23	-25	-31	-8	-11	-6	-3	3.800000	9.000000	6.900000
-1	-2	23	5	0	2	1	1	-7	-23	-25	-31	-8	-11	-6	-3	3.800000	9.000000	6.900000
-1	-2	23	5	0	2	1	1	-4	-12	-41	-30	-2	1	-1	-2	3.800000	9.000000	6.900000
-1	-2	23	5	0	2	1	1	0	-5	-56	20	4	2	-2	-3	3.800000	9.000000	6.900000
-1	-2	23	5	0	2	1	1	-4	-5	-36	-16	-7	-6	-5	-4	3.800000	9.000000	6.900000
-1	-2	23	5	0	2	1	1	-4	-5	-36	-16	-7	-6	-5	-4	3.800000	9.000000	6.900000
-2	-7	-37	0	1	0	2	0	-4	-5	-36	-16	-7	-6	-5	-4	3.800000	9.000000	6.900000
-2	-7	-37	0	1	0	2	0	12	6	-13	10	1	-9	-2	1	3.800000	9.000000	6.900000
-2	-7	-37	0	1	0	2	0	-4	-1	17	1	-4	2	1	-3	3.800000	9.000000	6.900000
-2	-7	-37	0	1	0	2	0	2	7	35	10	5	6	4	1	3.800000	9.000000	6.900000
-2	-7	-37	0	1	0	2	0	3	32	86	21	-1	-12	-3	2	3.800000	9.000000	6.900000
0	5	17	1	4	1	-1	-3	3	32	86	21	-1	-12	-3	2	3.800000	9.000000	6.900000
0	5	17	1	4	1	-1	-3	-1	4	12	6	1	1	1	-2	3.800000	9.000000	6.900000
0	5	17	1	4	1	-1	-3	-2	-2	10	2	-5	-2	-3	0	3.800000	9.000000	6.900000
0	5	17	1	4	1	-1	-3	-2	-2	10	2	-5	-2	-3	0	3.800000	9.000000	4.600000
-3	3	-21	-14	0	-1	-1	-3	-2	-2	10	2	-5	-2	-3	0	3.800000	9.000000	4.600000
-3	3	-21	-14	0	-1	-1	-3	1	9	27	-4	2	8	4	-1	3.800000	9.000000	4.600000
-3	3	-21	-14	0	-1	-1	-3	-2	-4	-25	9	3	-1	1	-2	3.800000	9.000000	4.600000
-3	3	-21	-14	0	-1	-1	-3	1	18	63	9	-3	-5	-2	-2	3.800000	9.000000	4.600000
-3	3	-21	-14	0	-1	-1	-3	-2	-8	-33	-14	-4	-9	-4	0	3.800000	9.000000	6.900000
0	7	24	3	-5	-3	-1	-1	-2	-8	-33	-14	-4	-9	-4	0	3.800000	9.000000	6.900000
0	7	24	3	-5	-3	-1	-1	-4	-4	-46	-11	-4	-9	-7	-2	3.800000	9.000000	6.900000
0	7	24	3	-5	-3	-1	-1	-7	-21	-20	-10	-1	2	2	-3	3.800000	9.000000	6.900000
-2	-3	-2	-41	-16	-5	-2	-2	-7	-21	-20	-10	-1	2	2	-3	3.800000	9.000000	6.900000
-2	-3	-2	-41	-16	-5	-2	-2	2	13	-8	-7	1	-4	-4	0	3.800000	9.000000	6.900000
-2	-3	-2	-41	-16	-5	-2	-2	-3	-9	-14	-4	-3	5	1	-4	3.800000	9.000000	6.900000
-2	-3	-2	-41	-16	-5	-2	-2	2	11	6	0	2	-5	-3	-3	5.700000	9.000000	6.900000
-2	-3	-2	-41	-16	-5	-2	-2	1	5	2	0	-3	-3	-1	1	5.700000	9.000000	6.900000
-3	-2	-3	29	1	-3	-3	-1	1	5	2	0	-3	-3	-1	1	5.700000	9.000000	6.900000
-3	-2	-3	29	1	-3	-3	-1	-1	-1	4	2	3	8	2	0	5.700000	9.000000	6.900000
-3	-2	-3	29	1	-3	-3	-1	-1	3	-28	-4	0	3	-1	0	5.700000	9.000000	6.900000
-3	-2	-3	29	1	-3	-3	-1	-1	3	-28	-4	0	3	-1	0	3.800000	9.000000	6.900000
-3	-2	-3	29	1	-3	-3	-1	3	-5	-47	-20	-3	-1	2	3	3.800000	9.000000	6.900000
-1	1	28	25	-1	-3	0	-1	3	-5	-47	-20	-3	-1	2	3	3.800000	9.000000	6.900000
-1	1	28	25	-1	-3	0	-1	-3	-4	-29	-12	-8	5	2	4	3.800000	9.000000	6.900000
-1	1	28	25	-1	-3	0	-1	-3	-10	-3	-6	-5	-3	-4	-3	5.700000	9.000000	4.600000
-1	1	28	25	-1	-3	0	-1	-5	-15	-14	4	2	-4	0	-5	5.700000	9.000000	4.600000
-3	-11	-19	-2	-5	2	-1	-2	-5	-15	-14	4	2	-4	0	-5	5.700000	9.000000	4.600000
-3	-11	-19	-2	-5	2	-1	-2	9	36	112	28	2	2	5	2	3.800000	9.000000	4.600000
-3	-11	-19	-2	-5	2	-1	-2	3	1	-13	-1	-3	-14	-8	2	3.800000	9.000000	6.900000
-3	-11	-19	-2	-5	2	-1	-2	-6	-7	-36	1	-4	-4	-5	-4	3.800000	9.000000	6.900000
-3	-11	-19	-2	-5	2	-1	-2	-1	4	65	7	-2	-12	-6	-4	5.700000	9.000000	6.900000
1	1	23	28	5	2	2	2	-1	4	65	7	-2	-12	-6	-4	5.700000	9.000000	6.900000
1	1	23	28	5	2	2	2	-4	-17	-59	-9	4	21	5	-2	5.700000	9.000000	6.900000
1	1	23	28	5	2	2	2	-2	-17	-37	2	-1	-1	0	3	5.700000	9.000000	6.900000
-1	-2	-10	-7	-6	-3	-8	-3	-2	-17	-37	2	-1	-1	0	3	5.700000	9.000000	6.900000
-1	-2	-10	-7	-6	-3	-8	-3	-1	9	-14	0	-4	-10	-5	-5	5.700000	9.000000	6.900000
-1	-2	-10	-7	-6	-3	-8	-3	-4	-6	8	-4	0	-17	-4	0	5.700000	9.000000	6.900000
-1	-2	-10	-7	-6	-3	-8	-3	2	6	2	-5	3	4	3	3	5.700000	9.000000	6.900000
-1	0	10	0	1	0	-2	-5	2	6	2	-5	3	4	3	3	5.700000	9.000000	6.900000
-1	0	10	0	1	0	-2	-5	-7	-12	-20	-14	-8	-19	-8	1	5.700000	9.000000	6.900000
-1	0	10	0	1	0	-2	-5	-3	-6	-48	-10	4	15	5	-4	5.700000	9.000000	6.900000
-1	0	10	0	1	0	-2	-5	-3	-8	-8	-2	-3	2	-2	-5	5.700000	9.000000	6.900000
-1	0	10	0	1	0	-2	-5	13	15	-4	3	5	2	13	14	5.700000	9.000000	6.900000
-3	22	-14	23	1	-1	0	-1	13	15	-4	3	5	2	13	14	5.700000	9.000000	6.900000
-3	22	-14	23	1	-1	0	-1	-4	-16	-24	-19	-7	-18	-5	-3	5.700000	9.000000	6.900000
-3	22	-14	23	1	-1	0	-1	6	-5	0	16	13	8	6	4	5.700000	9.000000	6.900000
-3	22	-14	23	1	-1	0	-1	2	9	-7	8	8	-14	-13	-6	7.600000	9.000000	6.900000
-3	22	-14	23	1	-1	0	-1	0	6	29	15	4	10	9	0	7.600000	9.000000	6.900000
0	-13	-31	-13	-7	-2	4	0	0	6	29	15	4	10	9	0	7.600000	9.000000	6.900000
0	-13	-31	-13	-7	-2	4	0	-5	-12	-23	-5	-7	-11	-12	1	5.700000	9.000000	6.900000
0	-13	-31	-13	-7	-2	4	0	-3	-12	-46	7	-7	-23	-2	1	5.700000	9.000000	6.900000
0	-13	-31	-13	-7	-2	4	0	2	4	19	10	2	6	-1	-3	5.700000	9.000000	6.900000
0	-13	-31	-13	-7	-2	4	0	2	4	19	10	2	6	-1	-3	5.700000	9.000000	6.900000
-4	-56	-12	54	13	2	3	-1	2	4	19	10	2	6	-1	-3	5.700000	9.000000	6.900000
-4	-56	-12	54	13	2	3	-1	-5	-20	-13	-1	0	9	6	-1	5.700000	9.000000	6.900000
-4	-56	-12	54	13	2	3	-1	4	18	-30	-3	-9	-1	-5	3	7.600000	9.000000	6.900000
-4	-56	-12	54	13	2	3	-1	-1	-1	18	9	4	12	2	1	7.600000	9.000000	6.900000
-4	-56	-12	54	13	2	3	-1	-1	-1	18	9	4	12	2	1	5.700000	9.000000	6.900000
-5	-15	-34	-29	-5	1	0	-4	-1	-1	18	9	4	12	2	1	5.700000	9.000000	6.900000
-5	-15	-34	-29	-5	1	0	-4	1	5	25	-1	-3	-1	8	0	5.700000	9.000000	6.900000
-5	-15	-34	-29	-5	1	0	-4	1	5	25	-1	-3	-1	8	0	5.700000	9.000000	6.900000
-5	-15	-34	-29	-5	1	0	-4	4	2	60	50	5	-10	2	4	5.700000	9.000000	6.900000
-5	-15	-34	-29	-5	1	0	-4	7	18	26	11	11	-1	4	0	5.700000	9.000000	6.900000
1	-6	11	-6	-2	-6	-1	0	7	18	26	11	11	-1	4	0	5.700000	9.000000	6.900000
1	-6	11	-6	-2	-6	-1	0	-9	-14	-14	-11	-10	-2	0	-7	5.700000	9.000000	4.600000
1	-6	11	-6	-2	-6	-1	0	-9	-14	-14	-11	-10	-2	0	-7	5.700000	9.000000	4.600000
1	-6	11	-6	-2	-6	-1	0	-7	-4	-28	0	3	8	1	-7	7.600000	9.000000	6.900000
1	-6	11	-6	-2	-6	-1	0	-10	-16	7	-3	-12	-17	-5	-4	7.600000	9.000000	6.900000
1	6	44	14	-6	-2	-2	-1	-10	-16	7	-3	-12	-17	-5	-4	7.600000	9.000000	6.900000
1	6	44	14	-6	-2	-2	-1	-1	2	-23	-17	-5	-11	-10	-5	7.600000	9.000000	6.900000
1	6	44	14	-6	-2	-2	-1	0	-8	-5	17	8	23	4	6	7.600000	9.000000	6.900000
1	6	44	14	-6	-2	-2	-1	0	-8	-5	17	8	23	4	6	7.600000	9.000000	6.900000
1	6	44	14	-6	-2	-2	-1	-1	-3	-1	1	-11	-23	-5	-3	7.600000	9.000000	6.900000
1	12	3	7	-7	-5	1	1	-1	-3	-1	1	-11	-23	-5	-3	7.600000	9.000000	6.900000
1	12	3	7	-7	-5	1	1	-5	-24	-25	0	-4	-4	0	-7	7.600000	9.000000	6.900000
1	12	3	7	-7	-5	1	1	0	12	70	22	20	24	9	-6	9.600000	9.000000	6.900000
1	12	3	7	-7	-5	1	1	0	12	70	22	20	24	9	-6	9.600000	9.000000	6.900000
4	-3	4	-23	8	-2	0	3	0	12	70	22	20	24	9	-6	9.600000	9.000000	6.900000
4	-3	4	-23	8	-2	0	3	-4	-9	-12	-1	-3	-10	-5	0	11.500000	10.900000	6.900000
4	-3	4	-23	8	-2	0	3	-5	-20	-52	-48	-19	-21	-10	-7	11.500000	10.900000	6.900000
4	-3	4	-23	8	-2	0	3	3	7	4	11	2	-12	-4	2	11.500000	10.900000	6.900000
4	-3	4	-23	8	-2	0	3	-1	-4	13	-8	-9	-6	0	6	11.500000	10.900000	6.900000
-1	3	37	15	-3	0	-1	-1	-1	-4	13	-8	-9	-6	0	6	11.500000	10.900000	6.900000
-1	3	37	15	-3	0	-1	-1	-1	-4	13	-8	-9	-6	0	6	11.500000	10.900000	6.900000
-1	3	37	15	-3	0	-1	-1	1	9	-4	13	13	19	10	2	9.600000	9.000000	6.900000
-1	3	37	15	-3	0	-1	-1	-9	-10	-103	-56	-23	-8	0	-3	9.600000	9.000000	6.900000
-1	-1	-24	-15	0	2	0	0	-9	-10	-103	-56	-23	-8	0	-3	9.600000	9.000000	6.900000
-1	-1	-24	-15	0	2	0	0	-6	-6	0	6	-3	33	-1	-6	9.600000	10.900000	6.900000
-1	-1	-24	-15	0	2	0	0	10	-26	-41	-25	4	26	5	1	9.600000	10.900000	6.900000
-1	-1	-24	-15	0	2	0	0	4	13	-4	7	5	-6	2	0	9.600000	10.900000	6.900000
-1	-1	-24	-15	0	2	0	0	4	15	116	18	0	3	0	0	9.600000	10.900000	6.900000
-1	17	-8	3	9	3	2	-1	4	15	116	18	0	3	0	0	9.600000	10.900000	6.900000
-1	17	-8	3	9	3	2	-1	-6	-2	24	-19	-4	-6	-3	-7	9.600000	10.900000	6.900000
-1	17	-8	3	9	3	2	-1	-3	0	5	3	10	23	5	4	9.600000	10.900000	6.900000
-1	17	-8	3	9	3	2	-1	-4	14	84	-10	5	-7	3	-5	7.600000	9.000000	6.900000
-1	17	-8	3	9	3	2	-1	-7	-22	-20	-4	-2	5	1	-5	7.600000	9.000000	6.900000
1	10	26	17	-10	-11	-3	-2	-7	-22	-20	-4	-2	5	1	-5	7.600000	9.000000	6.900000
1	10	26	17	-10	-11	-3	-2	-7	-21	-48	-22	-1	4	-5	-3	7.600000	9.000000	6.900000
1	10	26	17	-10	-11	-3	-2	-4	-10	-34	-11	-13	-31	-10	-11	9.600000	10.900000	6.900000
1	10	26	17	-10	-11	-3	-2	2	1	9	11	9	24	2	4	9.600000	10.900000	6.900000
1	10	26	17	-10	-11	-3	-2	-1	3	-28	19	6	5	-7	-2	9.600000	9.000000	6.900000
-1	3	15	0	3	6	1	-2	-1	3	-28	19	6	5	-7	-2	9.600000	9.000000	6.900000
-1	3	15	0	3	6	1	-2	-6	-14	-68	-13	-8	-3	-3	2	9.600000	9.000000	6.900000
-1	3	15	0	3	6	1	-2	6	11	14	9	-1	-39	-10	-3	9.600000	10.900000	6.900000
-1	3	15	0	3	6	1	-2	0	-13	11	-5	12	4	-2	0	9.600000	10.900000	6.900000
4	28	25	-3	4	-3	-2	-1	0	-13	11	-5	12	4	-2	0	9.600000	10.900000	6.900000
4	28	25	-3	4	-3	-2	-1	-4	-11	-64	4	-7	1	-1	1	9.600000	9.000000	6.900000
4	28	25	-3	4	-3	-2	-1	13	-13	21	14	6	8	1	1	9.600000	9.000000	6.900000
4	28	25	-3	4	-3	-2	-1	4	5	-53	8	1	-2	9	8	9.600000	9.000000	6.900000
4	28	25	-3	4	-3	-2	-1	4	5	-53	8	1	-2	9	8	9.600000	9.000000	6.900000
-6	-27	-34	-20	-12	-4	-1	-3	4	5	-53	8	1	-2	9	8	9.600000	9.000000	6.900000
-6	-27	-34	-20	-12	-4	-1	-3	6	24	-14	-1	-7	-23	-6	6	9.600000	10.900000	6.900000
-6	-27	-34	-20	-12	-4	-1	-3	-7	-11	-34	-20	-3	9	-4	-1	9.600000	10.900000	6.900000
-6	-27	-34	-20	-12	-4	-1	-3	-5	-16	-18	14	6	9	3	-7	9.600000	10.900000	4.600000
4	4	10	23	-2	-1	0	-1	-5	-16	-18	14	6	9	3	-7	9.600000	10.900000	4.600000
4	4	10	23	-2	-1	0	-1	4	14	48	27	-5	9	-5	0	9.600000	10.900000	4.600000
4	4	10	23	-2	-1	0	-1	-5	-1	0	46	11	19	3	-4	9.600000	10.900000	6.900000
4	4	10	23	-2	-1	0	-1	-5	-1	0	46	11	19	3	-4	9.600000	10.900000	6.900000
4	4	10	23	-2	-1	0	-1	-4	5	85	-12	-4	13	9	-4	11.500000	10.900000	6.900000
1	8	50	-18	-3	4	1	0	-4	5	85	-12	-4	13	9	-4	11.500000	10.900000	6.900000
1	8	50	-18	-3	4	1	0	-4	-5	-46	-2	3	7	-5	-5	11.500000	10.900000	6.900000
1	8	50	-18	-3	4	1	0	1	16	61	-3	-4	-9	6	4	11.500000	10.900000	4.600000
1	8	50	-18	-3	4	1	0	12	8	-13	40	1	-11	-1	2	11.500000	10.900000	4.600000
-2	-5	26	2	5	1	-1	-2	12	8	-13	40	1	-11	-1	2	11.500000	10.900000	4.600000
-2	-5	26	2	5	1	-1	-2	15	-38	22	-1	0	-9	-3	2	11.500000	10.900000	6.900000
-2	-5	26	2	5	1	-1	-2	-9	-7	9	-15	-4	0	1	-4	11.500000	10.900000	6.900000
-2	-5	26	2	5	1	-1	-2	-14	-11	-26	-17	-13	-20	-10	-5	9.600000	10.900000	6.900000
-1	-41	31	6	8	5	1	2	-14	-11	-26	-17	-13	-20	-10	-5	9.600000	10.900000	6.900000
-1	-41	31	6	8	5	1	2	-12	-8	20	-3	1	16	4	-2	9.600000	10.900000	6.900000
-1	-41	31	6	8	5	1	2	-4	-27	50	12	-5	2	2	-1	9.600000	10.900000	6.900000
-1	-41	31	6	8	5	1	2	20	21	96	23	14	15	-3	19	9.600000	10.900000	6.900000
-1	-41	31	6	8	5	1	2	-7	-5	-52	-7	4	15	2	-7	9.600000	10.900000	6.900000
1	-5	4	77	10	8	1	2	-7	-5	-52	-7	4	15	2	-7	9.600000	10.900000	6.900000
1	-5	4	77	10	8	1	2	1	6	58	-2	-8	-40	-14	-2	9.600000	10.900000	6.900000
1	-5	4	77	10	8	1	2	1	6	58	-2	-8	-40	-14	-2	9.600000	10.900000	6.900000
1	-5	4	77	10	8	1	2	-7	-12	-25	4	0	19	8	-5	9.600000	10.900000	6.900000
1	-5	4	77	10	8	1	2	-11	-15	-20	-22	-8	-6	-7	-7	9.600000	10.900000	6.900000
-5	-29	-9	-37	-12	2	4	-1	-11	-15	-20	-22	-8	-6	-7	-7	9.600000	10.900000	6.900000
-5	-29	-9	-37	-12	2	4	-1	-11	-15	-20	-22	-8	-6	-7	-7	9.600000	10.900000	6.900000
-5	-29	-9	-37	-12	2	4	-1	-5	1	16	-17	-12	-2	-1	-6	9.600000	10.900000	6.900000
-5	-29	-9	-37	-12	2	4	-1	-1	-7	-64	-17	-2	-14	-1	-2	9.600000	10.900000	6.900000
-5	-29	-9	-37	-12	2	4	-1	-1	-7	-64	-17	-2	-14	-1	-2	9.600000	10.900000	6.900000
-1	9	7	-17	-14	-3	-1	-2	-1	-7	-64	-17	-2	-14	-1	-2	9.600000	10.900000	6.900000
-1	9	7	-17	-14	-3	-1	-2	-7	-5	-24	-9	-1	9	-9	-6	9.600000	10.900000	6.900000
-1	9	7	-17	-14	-3	-1	-2	-7	-5	-24	-9	-1	9	-9	-6	9.600000	10.900000	6.900000
-1	9	7	-17	-14	-3	-1	-2	-1	-6	3	8	5	-2	-5	-1	9.600000	10.900000	6.900000
-1	21	-38	-55	-23	-5	-3	-2	-1	-6	3	8	5	-2	-5	-1	9.600000	10.900000	6.900000
-1	21	-38	-55	-23	-5	-3	-2	5	6	8	3	0	13	2	-3	9.600000	10.900000	6.900000
-1	21	-38	-55	-23	-5	-3	-2	3	9	5	12	3	-16	-9	2	9.600000	10.900000	6.900000
-1	21	-38	-55	-23	-5	-3	-2	3	9	5	12	3	-16	-9	2	9.600000	10.900000	6.900000
-1	21	-38	-55	-23	-5	-3	-2	-4	-15	-23	0	-6	-18	-6	-2	9.600000	10.900000	6.900000
-4	-36	-30	-33	-6	4	0	-2	-4	-15	-23	0	-6	-18	-6	-2	9.600000	10.900000	6.900000
-4	-36	-30	-33	-6	4	0	-2	-3	-3	-1	-5	-5	9	0	-1	9.600000	10.900000	6.900000
-4	-36	-30	-33	-6	4	0	-2	1	4	37	11	11	19	4	2	9.600000	10.900000	6.900000
-4	-36	-30	-33	-6	4	0	-2	1	4	37	11	11	19	4	2	7.600000	10.900000	6.900000
-4	-36	-30	-33	-6	4	0	-2	-1	-7	62	15	1	28	21	0	7.600000	10.900000	6.900000
-1	3	2	26	1	-4	-1	-2	-1	-7	62	15	1	28	21	0	7.600000	10.900000	6.900000
-1	3	2	26	1	-4	-1	-2	-3	-5	30	-7	-5	-16	-7	-5	9.600000	10.900000	6.900000
-1	3	2	26	1	-4	-1	-2	1	17	-1	35	7	5	6	3	9.600000	10.900000	6.900000
-1	3	2	26	1	-4	-1	-2	3	-6	4	-13	-17	-45	-10	2	9.600000	10.900000	6.900000
-1	3	2	26	1	-4	-1	-2	3	-6	4	-13	-17	-45	-10	2	9.600000	10.900000	6.900000
3	9	16	45	11	-4	-8	1	3	-6	4	-13	-17	-45	-10	2	9.600000	10.900000	6.900000
3	9	16	45	11	-4	-8	1	-15	-18	-54	-49	-30	-46	-16	-6	9.600000	10.900000	6.900000
3	9	16	45	11	-4	-8	1	-1	1	-18	1	3	4	-1	-8	9.600000	10.900000	6.900000
3	9	16	45	11	-4	-8	1	-5	-8	17	-16	-14	-14	-2	-4	9.600000	10.900000	6.900000
0	18	-24	-53	6	1	-1	-1	-5	-8	17	-16	-14	-14	-2	-4	9.600000	10.900000	6.900000
0	18	-24	-53	6	1	-1	-1	-5	-8	17	-16	-14	-14	-2	-4	9.600000	10.900000	6.900000
0	18	-24	-53	6	1	-1	-1	-1	1	-14	-7	5	6	-1	3	9.600000	10.900000	6.900000
0	18	-24	-53	6	1	-1	-1	-1	1	-14	-7	5	6	-1	3	9.600000	10.900000	6.900000
0	18	-24	-53	6	1	-1	-1	6	7	6	-5	-10	-41	-15	1	9.600000	10.900000	6.900000
0	8	-14	10	-6	-1	3	-1	6	7	6	-5	-10	-41	-15	1	9.600000	10.900000	6.900000
0	8	-14	10	-6	-1	3	-1	3	7	-3	14	14	22	2	-3	9.600000	10.900000	6.900000
0	8	-14	10	-6	-1	3	-1	0	-19	-15	-18	-1	-5	-2	-4	9.600000	10.900000	6.900000
0	8	-14	10	-6	-1	3	-1	-8	-14	-5	-13	0	18	6	-4	9.600000	10.900000	6.900000
0	8	-14	10	-6	-1	3	-1	-5	-5	9	10	8	38	11	-2	9.600000	10.900000	6.900000
1	-6	52	-42	-2	-6	-1	0	-5	-5	9	10	8	38	11	-2	9.600000	10.900000	6.900000
1	-6	52	-42	-2	-6	-1	0	3	5	-17	-21	5	19	5	3	9.600000	10.900000	6.900000
1	-6	52	-42	-2	-6	-1	0	3	5	-17	-21	5	19	5	3	9.600000	10.900000	6.900000
1	-6	52	-42	-2	-6	-1	0	-9	-14	-18	-18	-8	-19	-10	-7	9.600000	10.900000	6.900000
-2	-12	-21	12	-4	-2	0	-1	2	-1	17	0	2	0	4	5	9.600000	10.900000	6.900000
-2	-12	-21	12	-4	-2	0	-1	-4	-15	-44	-11	0	-7	-2	1	9.600000	10.900000	6.900000
-2	-12	-21	12	-4	-2	0	-1	0	-2	2	8	-5	-30	-7	3	9.600000	10.900000	6.900000
-2	-12	-21	12	-4	-2	0	-1	12	21	-31	20	0	-4	0	4	9.600000	10.900000	6.900000
0	-2	-53	7	8	2	2	0	12	21	-31	20	0	-4	0	4	9.600000	10.900000	6.900000
0	-2	-53	7	8	2	2	0	1	-3	71	15	-4	-18	-1	12	9.600000	10.900000	6.900000
0	-2	-53	7	8	2	2	0	-8	-3	-23	-20	-16	15	0	-7	9.600000	10.900000	6.900000
0	-2	-53	7	8	2	2	0	-8	-3	-23	-20	-16	15	0	-7	9.600000	10.900000	6.900000
-1	-3	10	1	6	-1	1	1	-8	-3	-23	-20	-16	15	0	-7	9.600000	10.900000	6.900000
-1	-3	10	1	6	-1	1	1	-6	-3	-34	-17	-11	-23	-11	-3	9.600000	10.900000	6.900000
-1	-3	10	1	6	-1	1	1	-9	-10	-39	-31	-5	6	4	-7	9.600000	10.900000	6.900000
-1	-3	10	1	6	-1	1	1	-9	-10	-39	-31	-5	6	4	-7	9.600000	10.900000	6.900000
-1	-3	10	1	6	-1	1	1	-6	-21	-29	-13	-10	-21	-8	-3	9.600000	10.900000	6.900000
2	5	-26	-5	-6	0	-1	-2	-6	-21	-29	-13	-10	-21	-8	-3	9.600000	10.900000	6.900000
2	5	-26	-5	-6	0	-1	-2	1	2	17	-10	3	13	7	0	9.600000	10.900000	6.900000
2	5	-26	-5	-6	0	-1	-2	-1	-6	-12	2	8	14	3	-4	9.600000	10.900000	6.900000
2	5	-26	-5	-6	0	-1	-2	-1	-6	-12	2	8	14	3	-4	9.600000	10.900000	6.900000
-5	6	-16	4	-7	-3	-2	-2	-1	-6	-12	2	8	14	3	-4	9.600000	10.900000	6.900000
-5	6	-16	4	-7	-3	-2	-2	-2	0	14	5	7	-2	-2	-4	9.600000	10.900000	6.900000
-5	6	-16	4	-7	-3	-2	-2	1	-10	2	2	-5	-5	3	1	9.600000	10.900000	6.900000
-5	6	-16	4	-7	-3	-2	-2	-4	-11	-2	3	1	8	4	1	9.600000	10.900000	6.900000
-3	11	20	8	2	-5	-3	-1	-4	-11	-2	3	1	8	4	1	9.600000	10.900000	6.900000
-3	11	20	8	2	-5	-3	-1	2	2	14	9	0	-3	2	0	9.600000	10.900000	6.900000
-3	11	20	8	2	-5	-3	-1	2	2	14	9	0	-3	2	0	9.600000	10.900000	6.900000
-3	11	20	8	2	-5	-3	-1	2	0	4	8	-1	-9	-4	2	9.600000	10.900000	6.900000
-3	11	20	8	2	-5	-3	-1	5	14	-1	11	11	1	-3	-2	9.600000	10.900000	6.900000
4	13	10	0	10	6	2	0	5	14	-1	11	11	1	-3	-2	9.600000	10.900000	6.900000
4	13	10	0	10	6	2	0	1	8	40	-10	-14	-4	1	-3	9.600000	10.900000	6.900000
4	13	10	0	10	6	2	0	-3	-2	5	-3	-4	7	3	3	9.600000	10.900000	6.900000
4	13	10	0	10	6	2	0	3	14	32	10	2	7	0	0	9.600000	10.900000	6.900000
-1	-6	-20	9	1	1	-2	-4	3	14	32	10	2	7	0	0	9.600000	10.900000	6.900000
-1	-6	-20	9	1	1	-2	-4	-1	-2	19	5	6	-3	0	0	7.600000	10.900000	6.900000
-1	-6	-20	9	1	1	-2	-4	-1	-2	19	5	6	-3	0	0	7.600000	10.900000	6.900000
-1	-6	-20	9	1	1	-2	-4	-2	2	-3	-12	-10	-9	-5	-3	7.600000	10.900000	6.900000
-1	-6	-20	9	1	1	-2	-4	-2	2	-3	-12	-10	-9	-5	-3	9.600000	10.900000	6.900000
-1	-6	-20	9	1	1	-2	-4	-4	-6	-18	-2	-2	3	1	-3	9.600000	10.900000	6.900000
-3	-14	-19	0	-8	-3	-5	-2	-4	-6	-18	-2	-2	3	1	-3	9.600000	10.900000	6.900000
-3	-14	-19	0	-8	-3	-5	-2	-15	-18	-30	0	4	7	-1	-2	7.600000	10.900000	6.900000
-3	-14	-19	0	-8	-3	-5	-2	1	3	6	10	4	-14	-2	-1	7.600000	10.900000	6.900000
-3	-14	-19	0	-8	-3	-5	-2	-2	-11	14	11	0	0	-4	0	9.600000	10.900000	6.900000
-1	-3	-7	3	-7	-7	-1	-1	-2	-11	14	11	0	0	-4	0	9.600000	10.900000	6.900000
-1	-3	-7	3	-7	-7	-1	-1	15	12	-3	45	17	16	-2	6	9.600000	10.900000	6.900000
-1	-3	-7	3	-7	-7	-1	-1	-2	-5	-11	-15	-6	-10	-5	-1	9.600000	10.900000	6.900000
-1	-3	-7	3	-7	-7	-1	-1	1	-4	1	-3	-4	-9	5	3	7.600000	10.900000	6.900000
-1	-3	-7	3	-7	-7	-1	-1	-1	5	46	26	-1	-10	-2	-5	7.600000	10.900000	6.900000
1	7	59	4	2	-4	-3	-1	-1	5	46	26	-1	-10	-2	-5	7.600000	10.900000	6.900000
1	7	59	4	2	-4	-3	-1	-3	-12	-16	-14	-12	-21	-10	0	9.600000	10.900000	6.900000
1	7	59	4	2	-4	-3	-1	-1	15	15	-13	-8	-10	-6	-1	9.600000	10.900000	6.900000
1	7	59	4	2	-4	-3	-1	-6	-32	-15	-19	-12	-18	-8	-2	7.600000	10.900000	6.900000
1	7	59	4	2	-4	-3	-1	1	1	-2	6	2	2	2	1	7.600000	10.900000	6.900000
-2	1	-27	-1	5	4	-1	-2	1	1	-2	6	2	2	2	1	7.600000	10.900000	6.900000
-2	1	-27	-1	5	4	-1	-2	1	1	-2	6	2	2	2	1	7.600000	10.900000	6.900000
-2	1	-27	-1	5	4	-1	-2	2	1	-28	-1	5	7	-2	-2	7.600000	10.900000	6.900000
-2	1	-27	-1	5	4	-1	-2	2	1	-28	-1	5	7	-2	-2	7.600000	10.900000	6.900000
-2	1	-27	-1	5	4	-1	-2	-13	-18	-42	-44	-19	5	-7	-13	7.600000	10.900000	6.900000
0	-8	11	8	2	0	-1	-1	-13	-18	-42	-44	-19	5	-7	-13	7.600000	10.900000	6.900000
0	-8	11	8	2	0	-1	-1	3	23	-6	20	10	-6	4	3	7.600000	10.900000	6.900000
0	-8	11	8	2	0	-1	-1	3	23	-6	20	10	-6	4	3	7.600000	9.000000	6.900000
0	-8	11	8	2	0	-1	-1	8	-5	-3	-17	-13	-11	0	14	7.600000	9.000000	6.900000
0	-8	11	8	2	0	-1	-1	-7	-3	27	26	11	29	11	-13	9.600000	10.900000	6.900000
-2	-1	-28	-15	-12	-5	-4	-1	-7	-3	27	26	11	29	11	-13	9.600000	10.900000	6.900000
-2	-1	-28	-15	-12	-5	-4	-1	-1	2	-20	9	11	45	2	-5	9.600000	10.900000	6.900000
-2	-1	-28	-15	-12	-5	-4	-1	-8	-21	12	-13	-13	-49	-18	-7	9.600000	10.900000	6.900000
-2	-1	-28	-15	-12	-5	-4	-1	5	-4	-9	7	7	13	3	5	9.600000	10.900000	6.900000
-6	-21	-17	-18	-2	-1	-1	-2	5	-4	-9	7	7	13	3	5	9.600000	10.900000	6.900000
-6	-21	-17	-18	-2	-1	-1	-2	5	-4	-9	7	7	13	3	5	9.600000	10.900000	6.900000
-6	-21	-17	-18	-2	-1	-1	-2	-5	-7	44	1	-12	-29	-7	1	9.600000	10.900000	6.900000
-6	-21	-17	-18	-2	-1	-1	-2	-2	-16	-46	-28	-20	-36	-5	0	9.600000	10.900000	6.900000
-6	-21	-17	-18	-2	-1	-1	-2	-4	-5	7	-7	-4	-12	-3	-6	9.600000	10.900000	6.900000
0	-15	-13	-39	5	7	-1	-1	-4	-5	7	-7	-4	-12	-3	-6	9.600000	10.900000	6.900000
0	-15	-13	-39	5	7	-1	-1	-4	-5	7	-7	-4	-12	-3	-6	9.600000	10.900000	6.900000
0	-15	-13	-39	5	7	-1	-1	8	12	6	12	28	49	12	13	9.600000	10.900000	6.900000
0	-15	-13	-39	5	7	-1	-1	3	4	1	5	-3	-1	0	4	9.600000	10.900000	6.900000
0	-15	-13	-39	5	7	-1	-1	3	4	1	5	-3	-1	0	4	9.600000	10.900000	6.900000
0	0	-18	3	0	1	-1	0	3	4	1	5	-3	-1	0	4	9.600000	10.900000	6.900000
0	0	-18	3	0	1	-1	0	2	7	3	10	5	-22	-14	-1	9.600000	10.900000	6.900000
0	0	-18	3	0	1	-1	0	3	-2	24	9	14	40	6	-3	9.600000	10.900000	4.600000
-2	-1	-30	-13	-13	-6	-3	0	3	-2	24	9	14	40	6	-3	9.600000	10.900000	4.600000
-2	-1	-30	-13	-13	-6	-3	0	-4	-8	-18	-18	-15	-2	-3	-2	9.600000	10.900000	6.900000
-2	-1	-30	-13	-13	-6	-3	0	-5	3	-13	-9	-1	16	-5	-7	9.600000	10.900000	6.900000
-2	-1	-30	-13	-13	-6	-3	0	-5	3	-13	-9	-1	16	-5	-7	9.600000	10.900000	6.900000
3	10	2	8	-6	-6	0	1	-5	3	-13	-9	-1	16	-5	-7	9.600000	10.900000	6.900000
3	10	2	8	-6	-6	0	1	-4	-4	-6	-4	-18	-47	-12	-1	9.600000	10.900000	6.900000
3	10	2	8	-6	-6	0	1	-3	0	-33	-24	-10	-27	0	-2	9.600000	10.900000	6.900000
3	10	2	8	-6	-6	0	1	-3	5	1	-1	10	10	8	-2	9.600000	10.900000	6.900000
3	10	2	8	-6	-6	0	1	-2	-4	7	2	-1	8	-3	-1	9.600000	10.900000	6.900000
-3	-7	11	-3	5	1	0	-2	-2	-4	7	2	-1	8	-3	-1	9.600000	10.900000	6.900000
-3	-7	11	-3	5	1	0	-2	11	-1	0	-8	-2	13	-8	-1	9.600000	10.900000	6.900000
-3	-7	11	-3	5	1	0	-2	13	9	18	18	3	0	-1	1	9.600000	9.000000	6.900000
-3	-7	11	-3	5	1	0	-2	-3	16	13	4	4	-3	3	-2	9.600000	9.000000	6.900000
0	3	16	10	1	-3	-2	-1	-3	16	13	4	4	-3	3	-2	9.600000	9.000000	6.900000
0	3	16	10	1	-3	-2	-1	-1	3	-3	-1	-6	-12	-2	-1	9.600000	10.900000	6.900000
0	3	16	10	1	-3	-2	-1	7	-16	-6	4	-4	-4	-7	-4	9.600000	10.900000	6.900000
0	3	16	10	1	-3	-2	-1	2	-6	4	5	0	-5	-10	4	11.500000	10.900000	6.900000
0	3	16	10	1	-3	-2	-1	-7	-16	-20	-17	-10	-4	2	0	11.500000	10.900000	6.900000
0	-4	-29	-29	4	1	2	3	-7	-16	-20	-17	-10	-4	2	0	11.500000	10.900000	6.900000
0	-4	-29	-29	4	1	2	3	-8	6	-2	28	2	4	-1	-3	9.600000	10.900000	6.900000
0	-4	-29	-29	4	1	2	3	2	-7	-37	-9	-3	13	3	-2	9.600000	10.900000	6.900000
0	-4	-29	-29	4	1	2	3	8	9	7	2	5	5	2	6	9.600000	10.900000	6.900000
3	-24	-11	-8	-2	-3	1	-2	8	9	7	2	5	5	2	6	9.600000	10.900000	6.900000
3	-24	-11	-8	-2	-3	1	-2	-3	-6	9	-1	0	0	1	-2	9.600000	10.900000	6.900000
3	-24	-11	-8	-2	-3	1	-2	-5	-6	-8	2	-7	-16	-4	-7	9.600000	10.900000	6.900000
3	-24	-11	-8	-2	-3	1	-2	-14	-12	9	-41	-37	-73	-24	-7	9.600000	10.900000	6.900000
1	-1	1	2	1	-1	-2	0	-14	-12	9	-41	-37	-73	-24	-7	9.600000	10.900000	6.900000
1	-1	1	2	1	-1	-2	0	8	6	-5	14	3	7	4	5	9.600000	10.900000	6.900000
1	-1	1	2	1	-1	-2	0	-7	-10	-6	-19	-11	0	-2	-6	9.600000	10.900000	6.900000
1	-1	1	2	1	-1	-2	0	-2	8	3	-10	4	20	6	0	9.600000	10.900000	6.900000
-2	-10	-21	-13	6	7	1	1	-2	8	3	-10	4	20	6	0	9.600000	10.900000	6.900000
-2	-10	-21	-13	6	7	1	1	8	12	-14	4	12	26	7	4	9.600000	10.900000	6.900000
-2	-10	-21	-13	6	7	1	1	-2	-23	28	4	2	-1	2	-2	9.600000	10.900000	6.900000
-2	1	-6	8	6	-2	-1	-2	-2	-23	28	4	2	-1	2	-2	9.600000	10.900000	6.900000
-2	1	-6	8	6	-2	-1	-2	-2	-23	28	4	2	-1	2	-2	9.600000	10.900000	6.900000
-2	1	-6	8	6	-2	-1	-2	-6	-10	1	-14	-15	-33	-10	-6	9.600000	10.900000	6.900000
-2	1	-6	8	6	-2	-1	-2	-4	-3	-17	-13	-19	-38	-12	-4	9.600000	10.900000	6.900000
-2	1	-6	8	6	-2	-1	-2	-1	7	23	-1	-8	1	0	-3	9.600000	9.000000	6.900000
-2	1	-6	8	6	-2	-1	-2	5	9	-3	14	16	15	3	2	9.600000	9.000000	6.900000
-2	1	-6	8	6	-2	-1	-2	0	9	29	6	2	-8	3	1	9.600000	10.900000	6.900000
-1	-23	-4	-4	-3	1	2	-2	0	9	29	6	2	-8	3	1	9.600000	10.900000	6.900000
-1	-23	-4	-4	-3	1	2	-2	5	20	22	12	1	-8	9	4	9.600000	10.900000	6.900000
-1	-23	-4	-4	-3	1	2	-2	-2	-3	-9	-4	0	6	-2	-3	9.600000	10.900000	6.900000
-1	-23	-4	-4	-3	1	2	-2	4	-15	-28	2	0	1	-2	-3	9.600000	10.900000	6.900000
0	8	4	5	-9	-5	-1	1	4	-15	-28	2	0	1	-2	-3	9.600000	10.900000	6.900000
0	8	4	5	-9	-5	-1	1	-3	-18	-3	-6	-8	-2	-5	-4	9.600000	9.000000	6.900000
0	8	4	5	-9	-5	-1	1	-3	-18	-3	-6	-8	-2	-5	-4	9.600000	9.000000	6.900000
0	8	4	5	-9	-5	-1	1	2	0	-3	13	2	-21	2	6	9.600000	10.900000	6.900000
0	8	4	5	-9	-5	-1	1	4	26	-2	6	7	22	7	0	9.600000	10.900000	6.900000
0	4	33	7	-7	-5	-2	-4	4	26	-2	6	7	22	7	0	9.600000	10.900000	6.900000
0	4	33	7	-7	-5	-2	-4	4	26	-2	6	7	22	7	0	9.600000	10.900000	6.900000
0	4	33	7	-7	-5	-2	-4	-5	-3	-1	-13	3	8	1	-4	9.600000	10.900000	4.600000
0	4	33	7	-7	-5	-2	-4	-7	-24	-1	-8	-13	-21	-7	-5	9.600000	10.900000	4.600000
-1	3	-29	6	-3	0	-1	-1	-7	-24	-1	-8	-13	-21	-7	-5	9.600000	10.900000	4.600000
-1	3	-29	6	-3	0	-1	-1	-2	1	0	-17	-9	-3	0	-2	9.600000	9.000000	6.900000
-1	3	-29	6	-3	0	-1	-1	-2	1	0	-17	-9	-3	0	-2	9.600000	9.000000	6.900000
-1	3	-29	6	-3	0	-1	-1	-1	4	-19	3	10	16	4	1	11.500000	9.000000	6.900000
-1	3	-29	6	-3	0	-1	-1	-9	-15	11	-13	-8	-9	-9	-7	11.500000	9.000000	6.900000
0	0	-29	-23	-5	-6	-1	1	-9	-15	11	-13	-8	-9	-9	-7	11.500000	9.000000	6.900000
0	0	-29	-23	-5	-6	-1	1	-9	-15	11	-13	-8	-9	-9	-7	11.500000	9.000000	6.900000
0	0	-29	-23	-5	-6	-1	1	-5	-19	-15	-12	-6	-3	-5	-4	11.500000	9.000000	6.900000
0	0	-29	-23	-5	-6	-1	1	5	17	12	7	10	10	-2	2	11.500000	9.000000	6.900000
0	0	-29	-23	-5	-6	-1	1	5	17	12	7	10	10	-2	2	11.500000	9.000000	6.900000
-2	11	-15	-25	-6	-4	-4	-2	5	17	12	7	10	10	-2	2	11.500000	9.000000	6.900000
-2	11	-15	-25	-6	-4	-4	-2	-1	0	38	16	3	11	1	-2	11.500000	9.000000	6.900000
-2	11	-15	-25	-6	-4	-4	-2	-1	7	-10	6	-3	-15	-5	-2	11.500000	9.000000	6.900000
-2	11	-15	-25	-6	-4	-4	-2	-1	7	-10	6	-3	-15	-5	-2	11.500000	9.000000	6.900000
-2	11	-15	-25	-6	-4	-4	-2	-9	2	-9	-13	-26	-32	-12	-1	11.500000	9.000000	6.900000
-2	-14	11	-8	-4	-3	-1	1	-9	2	-9	-13	-26	-32	-12	-1	11.500000	9.000000	6.900000
-2	-14	11	-8	-4	-3	-1	1	10	4	-9	25	25	20	8	5	11.500000	9.000000	6.900000
-2	-14	11	-8	-4	-3	-1	1	1	12	7	7	3	7	1	0	11.500000	9.000000	6.900000
-2	-14	11	-8	-4	-3	-1	1	1	12	7	7	3	7	1	0	11.500000	9.000000	6.900000
0	14	4	19	-4	-4	-3	-3	1	12	7	7	3	7	1	0	11.500000	9.000000	6.900000
0	14	4	19	-4	-4	-3	-3	-2	-3	-16	-3	-3	10	6	-1	11.500000	10.900000	6.900000
0	14	4	19	-4	-4	-3	-3	2	6	3	-6	-2	-8	-5	2	11.500000	10.900000	6.900000
0	14	4	19	-4	-4	-3	-3	6	16	38	5	3	9	2	1	11.500000	10.900000	6.900000
0	14	4	19	-4	-4	-3	-3	3	5	7	4	12	25	6	3	11.500000	10.900000	6.900000
-3	0	-17	-36	-13	-5	-5	-2	3	5	7	4	12	25	6	3	11.500000	10.900000	6.900000
-3	0	-17	-36	-13	-5	-5	-2	-8	-14	-18	-17	-14	-26	-12	-10	9.600000	9.000000	6.900000
-3	0	-17	-36	-13	-5	-5	-2	-8	-14	-18	-17	-14	-26	-12	-10	9.600000	9.000000	6.900000
-3	0	-17	-36	-13	-5	-5	-2	-5	5	0	0	-1	-5	0	0	9.600000	9.000000	4.600000
-3	0	-17	-36	-13	-5	-5	-2	-7	-10	16	-15	-22	-29	-10	-3	9.600000	9.000000	4.600000
-4	4	-20	-8	3	2	-3	-3	-7	-10	16	-15	-22	-29	-10	-3	9.600000	9.000000	4.600000
-4	4	-20	-8	3	2	-3	-3	-7	-10	16	-15	-22	-29	-10	-3	9.600000	9.000000	4.600000
-4	4	-20	-8	3	2	-3	-3	5	7	7	42	10	6	-1	2	11.500000	10.900000	4.600000
-4	4	-20	-8	3	2	-3	-3	-4	-5	50	0	-6	-6	-6	-4	11.500000	10.900000	4.600000
0	-5	0	4	2	-2	-2	0	-4	-5	50	0	-6	-6	-6	-4	11.500000	10.900000	4.600000
0	-5	0	4	2	-2	-2	0	-8	-9	-24	-18	-10	5	-3	-2	9.600000	9.000000	6.900000
0	-5	0	4	2	-2	-2	0	2	6	-2	1	1	8	12	2	9.600000	9.000000	6.900000
0	-5	0	4	2	-2	-2	0	1	-9	-5	2	3	-17	-10	-2	9.600000	9.000000	6.900000
0	8	-1	16	7	2	4	1	1	-9	-5	2	3	-17	-10	-2	9.600000	9.000000	6.900000
0	8	-1	16	7	2	4	1	-4	-3	-14	-3	3	6	1	0	9.600000	9.000000	6.900000
0	8	-1	16	7	2	4	1	-1	-10	-13	-27	-3	-7	-1	0	9.600000	9.000000	6.900000
0	8	-1	16	7	2	4	1	-2	8	-7	13	1	5	4	0	9.600000	10.900000	6.900000
0	8	-1	16	7	2	4	1	-2	8	-7	13	1	5	4	0	9.600000	10.900000	6.900000
-2	-1	14	-2	-21	-8	-5	-1	-2	8	-7	13	1	5	4	0	9.600000	10.900000	6.900000
-2	-1	14	-2	-21	-8	-5	-1	7	10	34	15	4	4	-3	0	9.600000	10.900000	6.900000
-2	-1	14	-2	-21	-8	-5	-1	8	18	28	14	2	-6	1	4	9.600000	9.000000	6.900000
-2	-1	14	-2	-21	-8	-5	-1	-9	-23	-33	-15	-3	9	-1	-7	9.600000	9.000000	6.900000
-2	-1	14	-2	-21	-8	-5	-1	1	9	-1	-13	-1	5	3	0	9.600000	9.000000	4.600000
-2	-7	-28	-14	0	2	0	0	1	9	-1	-13	-1	5	3	0	9.600000	9.000000	4.600000
-2	-7	-28	-14	0	2	0	0	1	9	-1	-13	-1	5	3	0	9.600000	9.000000	4.600000
-2	-7	-28	-14	0	2	0	0	-4	22	13	2	3	0	-3	-1	9.600000	9.000000	4.600000
-2	-7	-28	-14	0	2	0	0	2	13	15	18	-2	-14	-11	2	9.600000	9.000000	6.900000
-2	-7	-28	-14	0	2	0	0	-2	-10	-29	1	-2	-11	-6	2	9.600000	9.000000	6.900000
0	10	-9	-11	-4	0	-1	1	-2	-10	-29	1	-2	-11	-6	2	9.600000	9.000000	6.900000
0	10	-9	-11	-4	0	-1	1	1	-5	-21	-9	2	15	4	-1	9.600000	9.000000	6.900000
0	10	-9	-11	-4	0	-1	1	-2	-7	11	-10	-2	4	6	-1	9.600000	9.000000	6.900000
0	10	-9	-11	-4	0	-1	1	0	-5	17	7	6	4	1	0	9.600000	9.000000	6.900000
0	10	-9	-11	-4	0	-1	1	1	-4	-26	14	-5	-7	0	1	9.600000	9.000000	6.900000
-3	4	-17	-31	-5	-4	-5	-4	1	-4	-26	14	-5	-7	0	1	9.600000	9.000000	6.900000
-3	4	-17	-31	-5	-4	-5	-4	5	-1	-35	-2	-1	7	0	-1	9.600000	9.000000	6.900000
-3	4	-17	-31	-5	-4	-5	-4	5	-1	-35	-2	-1	7	0	-1	9.600000	9.000000	6.900000
-3	4	-17	-31	-5	-4	-5	-4	2	11	-1	3	2	0	-3	-2	9.600000	9.000000	6.900000
-2	2	4	-3	-11	-3	1	-2	2	-1	-5	-7	-4	2	4	2	9.600000	9.000000	6.900000
-2	2	4	-3	-11	-3	1	-2	2	-1	-5	-7	-4	2	4	2	9.600000	9.000000	6.900000
-2	2	4	-3	-11	-3	1	-2	-3	-5	-6	-9	1	-14	-8	-1	9.600000	10.900000	4.600000
-2	2	4	-3	-11	-3	1	-2	-3	-5	-6	-9	1	-14	-8	-1	9.600000	10.900000	4.600000
-2	-7	-2	8	-3	-3	0	-3	-3	-5	-6	-9	1	-14	-8	-1	9.600000	10.900000	4.600000
-2	-7	-2	8	-3	-3	0	-3	-3	1	51	20	-9	-10	-2	-2	9.600000	9.000000	6.900000
-2	-7	-2	8	-3	-3	0	-3	-3	-8	8	-3	-5	13	7	-5	9.600000	9.000000	6.900000
-2	-7	-2	8	-3	-3	0	-3	-1	5	0	3	5	11	-2	-2	9.600000	9.000000	4.600000
1	-7	23	-25	-3	-1	0	0	-1	5	0	3	5	11	-2	-2	9.600000	9.000000	4.600000
1	-7	23	-25	-3	-1	0	0	-4	-4	-19	-14	-12	-7	-5	-3	9.600000	9.000000	4.600000
1	-7	23	-25	-3	-1	0	0	-5	-12	-8	-8	-8	-14	-5	-8	9.600000	9.000000	6.900000
1	-7	23	-25	-3	-1	0	0	2	-3	16	5	0	2	4	4	9.600000	9.000000	6.900000
0	-3	2	-4	-8	-2	-2	0	2	-3	16	5	0	2	4	4	9.600000	9.000000	6.900000
0	-3	2	-4	-8	-2	-2	0	2	-3	16	5	0	2	4	4	9.600000	9.000000	6.900000
0	-3	2	-4	-8	-2	-2	0	-2	-5	-20	0	-5	-2	-2	-1	9.600000	9.000000	6.900000
0	-3	2	-4	-8	-2	-2	0	-1	4	5	4	-2	-16	-7	-1	9.600000	10.900000	6.900000
0	-3	2	-4	-8	-2	-2	0	7	8	-3	7	2	-6	2	3	9.600000	10.900000	6.900000
-1	6	-13	5	0	2	-1	-2	7	8	-3	7	2	-6	2	3	9.600000	10.900000	6.900000
-1	6	-13	5	0	2	-1	-2	7	8	-3	7	2	-6	2	3	9.600000	10.900000	4.600000
-1	6	-13	5	0	2	-1	-2	-6	-2	7	8	5	4	2	-6	9.600000	10.900000	4.600000
-1	6	-13	5	0	2	-1	-2	-6	-2	7	8	5	4	2	-6	9.600000	10.900000	6.900000
2	-2	7	-4	4	2	4	0	-6	-2	7	8	5	4	2	-6	9.600000	10.900000	6.900000
2	-2	7	-4	4	2	4	0	-4	-6	10	-12	2	1	1	0	9.600000	10.900000	6.900000
2	-2	7	-4	4	2	4	0	-2	9	8	-9	-2	16	2	0	9.600000	10.900000	6.900000
2	-2	7	-4	4	2	4	0	2	-5	-6	-16	-1	-3	-1	8	9.600000	10.900000	6.900000
0	9	14	-6	-4	-3	0	-2	2	-5	-6	-16	-1	-3	-1	8	9.600000	10.900000	6.900000
0	9	14	-6	-4	-3	0	-2	-2	-6	-34	-10	-4	-4	-3	0	9.600000	10.900000	4.600000
0	9	14	-6	-4	-3	0	-2	1	4	-1	3	7	17	5	-2	9.600000	10.900000	4.600000
0	9	14	-6	-4	-3	0	-2	1	4	-1	3	7	17	5	-2	9.600000	10.900000	4.600000
0	9	14	-6	-4	-3	0	-2	-5	-7	24	6	3	-2	-9	-5	9.600000	10.900000	4.600000
-1	2	9	7	3	1	-1	-1	-5	-7	24	6	3	-2	-9	-5	9.600000	10.900000	4.600000
-1	2	9	7	3	1	-1	-1	-5	-7	24	6	3	-2	-9	-5	9.600000	10.900000	6.900000
-1	2	9	7	3	1	-1	-1	-5	-8	-13	-4	-2	-5	-3	-5	9.600000	10.900000	6.900000
-1	2	9	7	3	1	-1	-1	-2	-7	-17	0	-1	-4	-1	1	9.600000	10.900000	6.900000
-1	2	9	7	3	1	-1	-1	2	7	22	25	3	-7	-10	-1	9.600000	10.900000	6.900000
-1	-2	-26	-10	-1	-1	1	1	2	7	22	25	3	-7	-10	-1	9.600000	10.900000	6.900000
-1	-2	-26	-10	-1	-1	1	1	2	7	22	25	3	-7	-10	-1	9.600000	10.900000	6.900000
-1	-2	-26	-10	-1	-1	1	1	5	18	40	18	-9	-14	-2	3	9.600000	10.900000	6.900000
-1	-2	-26	-10	-1	-1	1	1	5	18	40	18	-9	-14	-2	3	9.600000	10.900000	6.900000
1	4	69	29	3	-7	3	1	5	18	40	18	-9	-14	-2	3	9.600000	10.900000	6.900000
1	4	69	29	3	-7	3	1	5	-4	-16	21	7	-9	-6	5	9.600000	10.900000	6.900000
1	4	69	29	3	-7	3	1	-12	-14	-34	-38	-26	-14	-4	-10	9.600000	10.900000	6.900000
1	4	69	29	3	-7	3	1	-4	-3	5	0	3	4	6	-3	9.600000	10.900000	6.900000
1	4	69	29	3	-7	3	1	-4	-3	5	0	3	4	6	-3	9.600000	10.900000	4.600000
1	-15	-30	-20	5	3	4	-1	-4	-3	5	0	3	4	6	-3	9.600000	10.900000	4.600000
1	-15	-30	-20	5	3	4	-1	6	9	-3	-2	4	-4	-3	0	9.600000	10.900000	4.600000
1	-15	-30	-20	5	3	4	-1	-1	3	14	5	-9	-20	-6	1	7.600000	10.900000	6.900000
1	-15	-30	-20	5	3	4	-1	-7	-10	-1	-22	-8	-19	-2	-1	7.600000	10.900000	6.900000
-3	-5	-39	-29	-19	-8	-2	0	-7	-10	-1	-22	-8	-19	-2	-1	7.600000	10.900000	6.900000
-3	-5	-39	-29	-19	-8	-2	0	5	0	17	3	6	6	4	2	9.600000	10.900000	4.600000
-3	-5	-39	-29	-19	-8	-2	0	1	2	12	20	1	-6	-2	-1	9.600000	10.900000	4.600000
-3	-5	-39	-29	-19	-8	-2	0	-3	-5	-3	-6	-7	7	-2	-2	9.600000	10.900000	4.600000
-2	-1	-52	-31	-10	-1	-2	0	-3	-5	-3	-6	-7	7	-2	-2	9.600000	10.900000	4.600000
-2	-1	-52	-31	-10	-1	-2	0	-3	-5	-3	-6	-7	7	-2	-2	9.600000	10.900000	4.600000
-2	-1	-52	-31	-10	-1	-2	0	2	12	12	18	2	-25	-5	2	7.600000	10.900000	6.900000
-2	-1	-52	-31	-10	-1	-2	0	-1	-2	-6	19	8	21	4	1	7.600000	10.900000	6.900000
-2	-1	-52	-31	-10	-1	-2	0	-1	-2	-6	19	8	21	4	1	7.600000	10.900000	6.900000
-2	2	-17	-18	1	-7	-2	-1	-1	-2	-6	19	8	21	4	1	7.600000	10.900000	6.900000
-2	2	-17	-18	1	-7	-2	-1	-1	-11	-27	-7	-1	-5	-3	-5	7.600000	10.900000	4.600000
-2	2	-17	-18	1	-7	-2	-1	-1	-11	-27	-7	-1	-5	-3	-5	7.600000	10.900000	4.600000
-2	2	-17	-18	1	-7	-2	-1	0	-5	-1	-15	2	7	9	3	7.600000	9.000000	6.900000
-2	2	-17	-18	1	-7	-2	-1	7	30	-4	-9	-2	-10	-5	1	7.600000	9.000000	6.900000
-2	-2	-27	4	2	-1	-2	-2	7	30	-4	-9	-2	-10	-5	1	7.600000	9.000000	6.900000
-2	-2	-27	4	2	-1	-2	-2	0	-15	-26	3	-7	-6	-5	-6	7.600000	9.000000	6.900000
-2	-2	-27	4	2	-1	-2	-2	-1	-7	17	-3	-5	3	-4	-3	7.600000	9.000000	6.900000
-2	-2	-27	4	2	-1	-2	-2	-1	-7	17	-3	-5	3	-4	-3	9.600000	10.900000	4.600000
-2	-8	-51	-23	-18	0	-2	-2	-1	-7	17	-3	-5	3	-4	-3	9.600000	10.900000	4.600000
-2	-8	-51	-23	-18	0	-2	-2	-10	-5	6	2	2	12	2	-10	9.600000	10.900000	4.600000
-2	-8	-51	-23	-18	0	-2	-2	-10	-5	6	2	2	12	2	-10	9.600000	10.900000	6.900000
-2	-8	-51	-23	-18	0	-2	-2	-5	-3	-26	-11	6	7	3	-6	9.600000	10.900000	6.900000
-2	-8	-51	-23	-18	0	-2	-2	-9	-12	13	-15	10	19	6	1	9.600000	9.000000	6.900000
-1	-8	-2	-4	-1	3	3	1	-9	-12	13	-15	10	19	6	1	9.600000	9.000000	6.900000
-1	-8	-2	-4	-1	3	3	1	-6	-9	5	-14	-13	-6	-3	-4	9.600000	9.000000	6.900000
-1	-8	-2	-4	-1	3	3	1	3	14	-5	7	-13	-24	-9	3	7.600000	9.000000	6.900000
-1	-8	-2	-4	-1	3	3	1	4	-11	25	20	15	1	6	7	7.600000	9.000000	6.900000
-3	-15	-2	4	-4	-1	-2	0	4	-11	25	20	15	1	6	7	7.600000	9.000000	6.900000
-3	-15	-2	4	-4	-1	-2	0	-2	-6	-13	2	-7	5	-5	-1	9.600000	10.900000	6.900000
-3	-15	-2	4	-4	-1	-2	0	2	2	24	-8	0	9	3	1	9.600000	10.900000	6.900000
-3	-15	-2	4	-4	-1	-2	0	-2	3	-9	20	3	1	-3	-4	9.600000	9.000000	6.900000
0	-5	-16	-9	-1	-1	0	-1	-1	1	-9	0	0	7	4	-1	9.600000	9.000000	6.900000
0	-5	-16	-9	-1	-1	0	-1	-6	-8	-18	-15	-6	-9	-2	-3	7.600000	9.000000	6.900000
0	-5	-16	-9	-1	-1	0	-1	-6	-8	-18	-15	-6	-9	-2	-3	7.600000	9.000000	6.900000
0	-5	-16	-9	-1	-1	0	-1	2	13	22	2	3	-1	1	2	7.600000	9.000000	6.900000
-2	7	-12	-5	6	3	0	-1	2	13	22	2	3	-1	1	2	7.600000	9.000000	6.900000
0	2	-1	-6	-2	-3	-4	-1	2	13	22	2	3	-1	1	2	7.600000	9.000000	6.900000
-3	10	33	12	-2	0	0	-2	2	13	22	2	3	-1	1	2	7.600000	9.000000	6.900000
-3	10	33	12	-2	0	0	-2	-2	-11	-9	8	3	-2	-5	-3	7.600000	9.000000	6.900000
-3	10	33	12	-2	0	0	-2	-4	4	35	20	4	-8	-6	2	7.600000	9.000000	6.900000
-3	10	33	12	-2	0	0	-2	-1	-9	-1	-2	-4	-7	1	5	7.600000	9.000000	6.900000
-3	10	33	12	-2	0	0	-2	4	9	1	2	-1	-2	1	-3	7.600000	10.900000	4.600000
-3	10	33	12	-2	0	0	-2	3	2	36	6	4	4	0	-1	7.600000	10.900000	4.600000
-3	10	33	12	-2	0	0	-2	2	10	-2	-11	2	-2	-2	-1	7.600000	10.900000	4.600000
-3	10	33	12	-2	0	0	-2	0	-2	9	-5	2	4	2	1	7.600000	10.900000	4.600000
-3	10	33	12	-2	0	0	-2	-2	-4	-3	-13	-4	-15	-8	-3	7.600000	9.000000	4.600000
-3	10	33	12	-2	0	0	-2	0	-9	27	30	2	-1	2	0	7.600000	9.000000	4.600000
-3	10	33	12	-2	0	0	-2	1	1	29	-5	-9	4	1	-4	7.600000	9.000000	6.900000
1	-4	-35	-37	-2	2	2	-1	1	1	29	-5	-9	4	1	-4	7.600000	9.000000	6.900000
1	-4	-35	-37	-2	2	2	-1	2	-5	32	21	5	-2	3	2	7.600000	9.000000	6.900000
1	-4	-35	-37	-2	2	2	-1	2	-5	32	21	5	-2	3	2	9.600000	10.900000	6.900000
1	-4	-35	-37	-2	2	2	-1	6	17	-22	3	5	5	-3	-1	9.600000	10.900000	6.900000
-4	-9	5	-1	-6	-3	-2	-3	6	17	-22	3	5	5	-3	-1	9.600000	10.900000	6.900000
-4	-9	5	-1	-6	-3	-2	-3	-1	-5	-15	18	3	-3	5	1	7.600000	10.900000	4.600000
-4	-9	5	-1	-6	-3	-2	-3	-3	-1	0	-1	-1	-1	0	-1	7.600000	10.900000	4.600000
-2	-4	-2	4	-4	-5	-1	-1	-3	-1	0	-1	-1	-1	0	-1	7.600000	10.900000	4.600000
-2	-7	23	-6	14	1	-3	-3	-3	-1	0	-1	-1	-1	0	-1	7.600000	10.900000	4.600000
-1	-6	-34	-23	-3	-4	-1	1	-3	-1	0	-1	-1	-1	0	-1	7.600000	10.900000	4.600000
-1	-6	-34	-23	-3	-4	-1	1	-1	-5	-36	-3	-4	-1	-2	-2	9.600000	10.900000	6.900000
-1	-6	-34	-23	-3	-4	-1	1	-1	-5	-36	-3	-4	-1	-2	-2	9.600000	10.900000	6.900000
-1	-6	-34	-23	-3	-4	-1	1	0	-3	12	-9	-2	6	0	-1	9.600000	10.900000	6.900000
-1	-6	-34	-23	-3	-4	-1	1	0	-3	12	-9	-2	6	0	-1	9.600000	10.900000	6.900000
-1	-6	-34	-23	-3	-4	-1	1	-2	-7	3	7	-7	-7	-5	-3	7.600000	10.900000	6.900000
-1	-6	-34	-23	-3	-4	-1	1	-4	-10	-35	-10	-3	5	1	1	7.600000	10.900000	6.900000
-1	-6	-34	-23	-3	-4	-1	1	5	7	47	2	4	0	-4	4	9.600000	10.900000	6.900000
-1	-6	-34	-23	-3	-4	-1	1	-2	-3	19	1	1	6	2	-4	9.600000	10.900000	6.900000
-1	-6	-34	-23	-3	-4	-1	1	-2	-3	19	1	1	6	2	-4	9.600000	9.000000	6.900000
-1	-6	-34	-23	-3	-4	-1	1	-3	-5	-44	-13	-3	0	-3	-3	9.600000	9.000000	6.900000
-1	-6	-34	-23	-3	-4	-1	1	-8	-18	-35	-33	0	-4	-2	-2	9.600000	9.000000	6.900000
-1	-6	-34	-23	-3	-4	-1	1	-4	-9	-30	-16	-9	-1	0	0	9.600000	9.000000	6.900000
-1	-6	-34	-23	-3	-4	-1	1	-4	-9	-30	-16	-9	-1	0	0	9.600000	9.000000	6.900000
0	2	-91	-99	-6	1	-4	2	-4	-9	-30	-16	-9	-1	0	0	9.600000	9.000000	6.900000
0	2	-91	-99	-6	1	-4	2	0	-6	-37	-3	-2	-8	-1	-2	9.600000	9.000000	6.900000
0	2	-91	-99	-6	1	-4	2	0	-6	-37	-3	-2	-8	-1	-2	9.600000	9.000000	6.900000
0	2	-91	-99	-6	1	-4	2	-1	-4	-48	-5	8	12	0	-2	9.600000	9.000000	6.900000
0	2	-91	-99	-6	1	-4	2	5	13	49	21	10	9	1	4	9.600000	9.000000	6.900000
-3	20	16	-1	1	5	-5	-3	5	13	49	21	10	9	1	4	9.600000	9.000000	6.900000
-1	-9	40	8	3	0	-4	-3	5	13	49	21	10	9	1	4	9.600000	9.000000	6.900000
0	-15	4	-16	-1	0	3	-3	5	13	49	21	10	9	1	4	9.600000	9.000000	6.900000
2	3	-1	3	-6	-8	0	1	5	13	49	21	10	9	1	4	9.600000	9.000000	6.900000
2	3	-1	3	-6	-8	0	1	5	13	49	21	10	9	1	4	9.600000	9.000000	6.900000
2	3	-1	3	-6	-8	0	1	5	18	57	40	8	3	7	0	11.500000	10.900000	6.900000
2	3	-1	3	-6	-8	0	1	-9	-16	-36	-38	-10	-2	-4	-7	15.300000	10.900000	6.900000
2	3	-1	3	-6	-8	0	1	-6	-19	-103	-43	-16	-21	-5	-2	15.300000	10.900000	6.900000
2	3	-1	3	-6	-8	0	1	-6	-8	-43	-17	-7	9	5	-5	17.300000	12.700000	9.300000
2	3	-1	3	-6	-8	0	1	-6	-8	-43	-17	-7	9	5	-5	17.300000	12.700000	9.300000
2	3	-1	3	-6	-8	0	1	-4	-3	67	8	-10	-8	-5	-4	19.200000	14.500000	6.900000
2	3	-1	3	-6	-8	0	1	-2	3	91	10	0	5	12	-3	19.200000	14.500000	6.900000
2	3	-1	3	-6	-8	0	1	0	-23	-85	-11	-4	7	6	4	21.100000	18.100000	6.900000
2	3	-1	3	-6	-8	0	1	-1	-2	-65	-22	-10	-10	0	1	21.100000	18.100000	6.900000
2	3	-1	3	-6	-8	0	1	13	20	41	32	18	8	-7	1	21.100000	18.100000	6.900000
2	3	-1	3	-6	-8	0	1	13	20	41	32	18	8	-7	1	21.100000	21.800000	6.900000
2	3	-1	3	-6	-8	0	1	2	23	7	64	8	3	-2	-2	21.100000	21.800000	6.900000
2	3	-1	3	-6	-8	0	1	-12	-22	7	-42	-6	-7	0	-4	21.100000	20.000000	6.900000
1	-4	2	31	-3	4	-6	2	-12	-22	7	-42	-6	-7	0	-4	21.100000	20.000000	6.900000
1	-4	2	31	-3	4	-6	2	-12	-22	7	-42	-6	-7	0	-4	21.100000	20.000000	6.900000
1	-4	2	31	-3	4	-6	2	5	23	106	20	0	-3	-5	3	21.100000	20.000000	6.900000
-1	5	-99	-77	-8	-2	-5	0	5	23	106	20	0	-3	-5	3	21.100000	20.000000	6.900000
-1	5	-99	-77	-8	-2	-5	0	-6	-15	93	19	-6	-7	14	-4	21.100000	20.000000	6.900000
-1	5	-99	-77	-8	-2	-5	0	-3	-16	-111	-26	-2	-3	-5	-3	21.100000	20.000000	6.900000
-1	-10	-77	-44	-5	0	3	3	-3	-16	-111	-26	-2	-3	-5	-3	21.100000	20.000000	6.900000
-1	-10	-77	-44	-5	0	3	3	-9	-19	10	-18	-11	-16	-6	-5	21.100000	20.000000	6.900000
-1	-10	-77	-44	-5	0	3	3	10	19	-38	-11	-1	4	3	4	21.100000	20.000000	6.900000
-1	-10	-77	-44	-5	0	3	3	-6	-5	-21	-21	-9	-1	-6	-5	21.100000	20.000000	6.900000
-1	-10	-77	-44	-5	0	3	3	1	10	27	10	1	-12	-3	-1	19.200000	18.100000	6.900000
-1	-10	-77	-44	-5	0	3	3	-7	-9	-14	13	-4	1	-1	-5	19.200000	18.100000	6.900000
-1	-10	-77	-44	-5	0	3	3	-4	-14	-39	-26	-2	3	0	-1	19.200000	18.100000	6.900000
-1	-10	-77	-44	-5	0	3	3	-4	-14	-39	-26	-2	3	0	-1	17.300000	16.300000	6.900000
1	-4	-17	-6	-2	-4	0	-1	-4	-14	-39	-26	-2	3	0	-1	17.300000	16.300000	6.900000
1	-4	-17	-6	-2	-4	0	-1	5	15	-22	17	2	-4	-9	1	17.300000	16.300000	6.900000
2	11	37	-36	-3	0	0	2	5	15	-22	17	2	-4	-9	1	17.300000	16.300000	6.900000
-1	-8	-19	-19	-1	-1	-5	0	5	15	-22	17	2	-4	-9	1	17.300000	16.300000	6.900000
-1	-8	-19	-19	-1	-1	-5	0	0	-6	8	2	-9	-3	-6	-2	17.300000	14.500000	6.900000
-1	-8	-19	-19	-1	-1	-5	0	0	-6	8	2	-9	-3	-6	-2	17.300000	14.500000	6.900000
-1	-8	-19	-19	-1	-1	-5	0	-6	0	58	11	1	6	2	-3	13.400000	10.900000	6.900000
-1	-8	-19	-19	-1	-1	-5	0	0	5	-11	-15	-5	5	2	0	13.400000	10.900000	6.900000
-1	-8	-19	-19	-1	-1	-5	0	-6	-16	31	0	4	11	1	-5	13.400000	10.900000	6.900000
-1	-8	-19	-19	-1	-1	-5	0	-6	-16	31	0	4	11	1	-5	13.400000	10.900000	6.900000
-1	-8	-19	-19	-1	-1	-5	0	6	11	-13	3	-5	-4	2	1	11.500000	9.000000	6.900000
-1	-8	-19	-19	-1	-1	-5	0	-1	-10	-12	11	0	2	2	3	11.500000	9.000000	6.900000
-1	-8	-19	-19	-1	-1	-5	0	5	6	0	17	18	7	9	2	11.500000	9.000000	6.900000
-1	-8	-19	-19	-1	-1	-5	0	5	6	0	17	18	7	9	2	11.500000	9.000000	6.900000
-1	-14	-37	-27	2	1	-1	-1	5	6	0	17	18	7	9	2	11.500000	9.000000	6.900000
-1	-14	-37	-27	2	1	-1	-1	-1	0	60	11	-4	-8	-6	0	11.500000	9.000000	6.900000
-1	1	-5	-3	-7	-5	0	-1	-1	0	60	11	-4	-8	-6	0	11.500000	9.000000	6.900000
1	-6	15	17	1	-1	-1	1	-1	0	60	11	-4	-8	-6	0	11.500000	9.000000	6.900000
1	-6	15	17	1	-1	-1	1	2	15	40	18	4	5	2	2	11.500000	10.900000	6.900000
1	-6	15	17	1	-1	-1	1	-5	-9	-74	-34	-9	-4	-2	-5	11.500000	10.900000	6.900000
1	-6	15	17	1	-1	-1	1	-3	-21	-54	-14	-7	-11	-5	-3	11.500000	9.000000	6.900000
1	-6	15	17	1	-1	-1	1	1	5	58	26	3	12	11	1	11.500000	9.000000	6.900000
1	-6	15	17	1	-1	-1	1	2	19	81	7	-3	-11	-4	-1	9.600000	9.000000	6.900000
1	-6	15	17	1	-1	-1	1	1	2	-48	-4	3	-2	1	1	9.600000	9.000000	6.900000
1	-6	15	17	1	-1	-1	1	-1	10	26	4	-4	-1	1	-1	9.600000	9.000000	6.900000
1	-6	15	17	1	-1	-1	1	3	2	-3	10	4	-1	-3	1	9.600000	9.000000	6.900000
1	-6	15	17	1	-1	-1	1	3	2	-3	10	4	-1	-3	1	9.600000	9.000000	6.900000
-2	12	30	-8	2	2	-5	-2	3	2	-3	10	4	-1	-3	1	9.600000	9.000000	6.900000
-2	12	30	-8	2	2	-5	-2	-2	-8	-10	0	0	-5	-1	-3	9.600000	9.000000	4.600000
-2	12	30	-8	2	2	-5	-2	-2	-8	-10	0	0	-5	-1	-3	9.600000	9.000000	4.600000
-2	12	30	-8	2	2	-5	-2	0	2	-3	-9	-6	-1	3	-2	9.600000	9.000000	4.600000
-2	-2	-8	17	3	1	1	-1	0	2	-3	-9	-6	-1	3	-2	9.600000	9.000000	4.600000
-3	10	-12	23	8	1	-4	-4	0	2	-3	-9	-6	-1	3	-2	9.600000	9.000000	4.600000
-2	-10	-41	-11	-1	4	-1	0	0	2	-3	-9	-6	-1	3	-2	9.600000	9.000000	4.600000
-2	-10	-41	-11	-1	4	-1	0	0	2	-3	-9	-6	-1	3	-2	9.600000	9.000000	6.900000
-2	-10	-41	-11	-1	4	-1	0	-4	-14	-23	-11	-1	-3	-6	0	9.600000	9.000000	6.900000
-2	-10	-41	-11	-1	4	-1	0	8	17	21	19	9	10	5	3	9.600000	9.000000	6.900000
-2	-10	-41	-11	-1	4	-1	0	8	17	21	19	9	10	5	3	9.600000	9.000000	6.900000
-2	-10	-41	-11	-1	4	-1	0	-4	-6	27	11	-3	1	-1	-4	9.600000	9.000000	4.600000
-2	-10	-41	-11	-1	4	-1	0	-1	-3	12	-12	5	-3	-3	0	9.600000	9.000000	4.600000
-2	-10	-41	-11	-1	4	-1	0	-2	0	11	-6	7	3	0	-3	9.600000	9.000000	6.900000
-2	-10	-41	-11	-1	4	-1	0	-2	0	11	-6	7	3	0	-3	9.600000	9.000000	6.900000
-2	-10	-41	-11	-1	4	-1	0	0	2	4	1	-4	-2	-2	-1	9.600000	9.000000	6.900000
-2	-10	-41	-11	-1	4	-1	0	-1	-2	-23	9	3	3	3	0	9.600000	9.000000	6.900000
-2	-10	-41	-11	-1	4	-1	0	-1	-2	-23	9	3	3	3	0	9.600000	9.000000	4.600000
-2	-2	9	15	-7	-4	-4	-1	-1	-2	-23	9	3	3	3	0	9.600000	9.000000	4.600000
3	-8	-14	20	1	2	1	0	-1	-2	-23	9	3	3	3	0	9.600000	9.000000	4.600000
-4	-15	33	7	-3	-6	-2	-3	-1	-2	-23	9	3	3	3	0	9.600000	9.000000	4.600000
-4	-15	33	7	-3	-6	-2	-3	-2	0	8	-1	-8	1	2	-2	9.600000	9.000000	4.600000
-4	-15	33	7	-3	-6	-2	-3	-2	0	8	-1	-8	1	2	-2	9.600000	9.000000	6.900000
-4	-15	33	7	-3	-6	-2	-3	-3	2	19	-1	-1	-14	-5	-1	9.600000	9.000000	6.900000
-4	-15	33	7	-3	-6	-2	-3	-1	-2	-2	19	-3	-6	-4	-2	9.600000	9.000000	6.900000
-4	-15	33	7	-3	-6	-2	-3	1	14	9	-5	-1	5	1	0	9.600000	9.000000	6.900000
-4	-15	33	7	-3	-6	-2	-3	1	14	9	-5	-1	5	1	0	7.600000	9.000000	4.600000
-4	-15	33	7	-3	-6	-2	-3	1	12	97	4	-3	0	-3	2	7.600000	9.000000	4.600000
-4	-15	33	7	-3	-6	-2	-3	-6	-22	-92	-21	-7	0	-2	-2	9.600000	9.000000	6.900000
-4	-15	33	7	-3	-6	-2	-3	-6	-22	-92	-21	-7	0	-2	-2	9.600000	9.000000	6.900000
-4	-15	33	7	-3	-6	-2	-3	-3	0	26	-6	-5	-5	-5	-1	9.600000	9.000000	4.600000
-5	-1	39	1	-8	-4	-5	-3	-3	0	26	-6	-5	-5	-5	-1	9.600000	9.000000	4.600000
-3	-13	59	-10	12	2	-6	-5	-3	0	26	-6	-5	-5	-5	-1	9.600000	9.000000	4.600000
0	18	-58	3	1	3	1	0	-3	0	26	-6	-5	-5	-5	-1	9.600000	9.000000	4.600000
0	18	-58	3	1	3	1	0	-3	0	26	-6	-5	-5	-5	-1	9.600000	9.000000	4.600000
0	18	-58	3	1	3	1	0	-11	-32	-120	-42	-11	2	2	-6	9.600000	9.000000	4.600000
0	18	-58	3	1	3	1	0	-2	2	-2	1	-8	-13	-7	-4	9.600000	9.000000	6.900000
0	18	-58	3	1	3	1	0	-6	-19	-50	-19	-5	1	1	-2	9.600000	9.000000	6.900000
0	18	-58	3	1	3	1	0	-5	-9	-9	-9	-8	-13	-8	-4	9.600000	9.000000	6.900000
0	18	-58	3	1	3	1	0	-2	8	45	-30	-7	-6	-1	-3	9.600000	9.000000	6.900000
0	18	-58	3	1	3	1	0	-7	-14	-41	15	-1	4	-7	-9	11.500000	9.000000	6.900000
0	18	-58	3	1	3	1	0	-1	1	38	-14	-1	5	12	2	11.500000	10.900000	6.900000
0	18	-58	3	1	3	1	0	3	2	8	1	-4	3	-1	1	11.500000	10.900000	6.900000
0	18	-58	3	1	3	1	0	10	23	48	16	13	2	5	7	11.500000	10.900000	6.900000
0	18	-58	3	1	3	1	0	2	7	-16	-8	-11	-2	4	0	13.400000	12.700000	6.900000
2	15	8	3	-4	-1	4	0	2	7	-16	-8	-11	-2	4	0	13.400000	12.700000	6.900000
-9	-26	18	8	-9	-10	-16	-17	2	7	-16	-8	-11	-2	4	0	13.400000	12.700000	6.900000
1	1	-4	15	3	1	-1	-3	2	7	-16	-8	-11	-2	4	0	13.400000	12.700000	6.900000
1	1	-4	15	3	1	-1	-3	0	16	107	32	13	-1	-4	-2	13.400000	12.700000	6.900000
1	1	-4	15	3	1	-1	-3	0	16	107	32	13	-1	-4	-2	13.400000	16.300000	6.900000
1	1	-4	15	3	1	-1	-3	2	-8	-108	-30	-3	11	5	2	13.400000	16.300000	6.900000
1	1	-4	15	3	1	-1	-3	-4	-11	19	13	-5	-3	-1	-5	15.300000	20.000000	6.900000
1	1	-4	15	3	1	-1	-3	-4	-11	19	13	-5	-3	-1	-5	15.300000	20.000000	6.900000
1	1	-4	15	3	1	-1	-3	2	14	115	15	10	9	3	1	15.300000	25.400000	6.900000
1	1	-4	15	3	1	-1	-3	3	16	-25	6	5	-4	-4	-4	15.300000	25.400000	6.900000
1	1	-4	15	3	1	-1	-3	-1	5	29	-2	1	4	5	0	15.300000	25.400000	6.900000
1	1	-4	15	3	1	-1	-3	-1	10	62	8	4	4	-1	-4	15.300000	30.900000	6.900000
1	1	-4	15	3	1	-1	-3	-4	-15	-28	-11	-8	-9	-10	-3	15.300000	29.000000	6.900000
2	-15	-93	-5	5	-5	-7	-7	-4	-15	-28	-11	-8	-9	-10	-3	15.300000	29.000000	6.900000
2	-15	-93	-5	5	-5	-7	-7	-6	-21	-40	-15	-11	-1	-3	-4	15.300000	29.000000	6.900000
-2	-4	54	21	2	0	-27	-4	-6	-21	-40	-15	-11	-1	-3	-4	15.300000	29.000000	6.900000
5	7	-37	-21	9	15	8	-1	-6	-21	-40	-15	-11	-1	-3	-4	15.300000	29.000000	6.900000
5	7	-37	-21	9	15	8	-1	10	35	60	27	13	15	2	5	15.300000	23.600000	6.900000
5	7	-37	-21	9	15	8	-1	11	44	41	20	7	10	-14	10	15.300000	23.600000	6.900000
5	7	-37	-21	9	15	8	-1	4	-4	-48	8	4	4	4	3	13.400000	20.000000	6.900000
5	7	-37	-21	9	15	8	-1	-10	-25	-101	-17	2	9	24	-6	13.400000	20.000000	6.900000
5	7	-37	-21	9	15	8	-1	-2	-7	-22	-11	-5	-13	11	4	15.300000	20.000000	6.900000
5	7	-37	-21	9	15	8	-1	9	22	-12	26	15	8	4	5	15.300000	20.000000	6.900000
5	7	-37	-21	9	15	8	-1	-3	-14	-34	-14	-4	-6	1	3	13.400000	18.100000	6.900000
5	7	-37	-21	9	15	8	-1	0	11	52	5	3	-1	-6	-6	13.400000	18.100000	6.900000
5	7	-37	-21	9	15	8	-1	2	-1	17	-2	-3	-14	-4	0	13.400000	18.100000	6.900000
-2	8	29	2	7	0	-3	-2	2	-1	17	-2	-3	-14	-4	0	13.400000	18.100000	6.900000
-2	8	29	2	7	0	-3	-2	-3	-9	12	-13	-3	-7	-6	-1	13.400000	18.100000	6.900000
-2	8	29	2	7	0	-3	-2	8	4	-91	30	9	15	10	6	13.400000	18.100000	6.900000
1	0	-13	-23	4	-3	-4	-1	8	4	-91	30	9	15	10	6	13.400000	18.100000	6.900000
-2	-4	-56	12	1	0	0	-2	8	4	-91	30	9	15	10	6	13.400000	18.100000	6.900000
-1	6	5	-18	7	0	-2	-1	8	4	-91	30	9	15	10	6	13.400000	18.100000	6.900000
-1	6	5	-18	7	0	-2	-1	-4	-19	-62	-2	2	-3	-1	0	13.400000	18.100000	6.900000
-1	6	5	-18	7	0	-2	-1	-4	-15	24	-21	-6	4	-2	-4	13.400000	18.100000	6.900000
-1	6	5	-18	7	0	-2	-1	-4	-7	-40	-12	-18	-2	-3	-2	13.400000	16.300000	6.900000
-1	6	5	-18	7	0	-2	-1	1	4	34	6	-2	-5	-1	-2	13.400000	16.300000	6.900000
-1	6	5	-18	7	0	-2	-1	-5	3	10	-1	-1	-7	-5	-6	13.400000	16.300000	6.900000
-1	6	5	-18	7	0	-2	-1	1	22	35	9	5	-4	-2	0	13.400000	16.300000	6.900000
-1	6	5	-18	7	0	-2	-1	1	22	35	9	5	-4	-2	0	13.400000	16.300000	6.900000
-1	6	5	-18	7	0	-2	-1	-9	-29	-58	-39	-16	-14	-7	-4	13.400000	16.300000	6.900000
-1	6	5	-18	7	0	-2	-1	-9	-29	-58	-39	-16	-14	-7	-4	13.400000	14.500000	4.600000
-1	6	5	-18	7	0	-2	-1	2	19	98	37	13	2	2	1	13.400000	14.500000	4.600000
-1	6	5	-18	7	0	-2	-1	-10	-32	-115	-44	-7	3	1	-2	13.400000	14.500000	4.600000
-1	6	5	-18	7	0	-2	-1	-10	-32	-115	-44	-7	3	1	-2	11.500000	12.700000	4.600000
-2	-19	5	-1	5	4	0	-1	-10	-32	-115	-44	-7	3	1	-2	11.500000	12.700000	4.600000
-2	6	0	2	0	-2	-2	0	-10	-32	-115	-44	-7	3	1	-2	11.500000	12.700000	4.600000
-1	-10	-23	-13	-2	0	-1	0	-10	-32	-115	-44	-7	3	1	-2	11.500000	12.700000	4.600000
-1	-10	-23	-13	-2	0	-1	0	-3	-7	-6	-4	-2	1	-4	-2	11.500000	12.700000	4.600000
-1	-10	-23	-13	-2	0	-1	0	-2	3	55	-4	-4	2	-2	-3	11.500000	12.700000	6.900000
-1	-10	-23	-13	-2	0	-1	0	-2	5	22	-2	15	0	-1	-2	11.500000	12.700000	6.900000
-1	-10	-23	-13	-2	0	-1	0	-2	7	79	33	2	0	1	-1	11.500000	10.900000	6.900000
-1	-10	-23	-13	-2	0	-1	0	-4	-17	-99	-31	3	0	1	-1	11.500000	10.900000	6.900000
-1	-10	-23	-13	-2	0	-1	0	-4	-17	-99	-31	3	0	1	-1	11.500000	10.900000	6.900000
-1	-10	-23	-13	-2	0	-1	0	-4	-2	-26	0	-5	-2	3	0	9.600000	10.900000	6.900000
-1	-10	-23	-13	-2	0	-1	0	-3	0	-12	-11	-8	-7	-5	-2	9.600000	10.900000	6.900000
-1	-10	-23	-13	-2	0	-1	0	-3	0	-12	-11	-8	-7	-5	-2	9.600000	10.900000	4.600000
-1	-10	-23	-13	-2	0	-1	0	2	22	105	22	4	2	2	0	9.600000	10.900000	4.600000
-1	-10	-23	-13	-2	0	-1	0	2	-3	-22	7	5	6	3	0	9.600000	10.900000	4.600000
-1	6	27	13	7	-1	0	-2	2	-3	-22	7	5	6	3	0	9.600000	10.900000	4.600000
2	11	6	30	12	3	-2	0	2	-3	-22	7	5	6	3	0	9.600000	10.900000	4.600000
6	1	-2	21	1	-3	-3	-4	2	-3	-22	7	5	6	3	0	9.600000	10.900000	4.600000
6	1	-2	21	1	-3	-3	-4	7	14	0	12	7	3	-1	2	9.600000	9.000000	6.900000
6	1	-2	21	1	-3	-3	-4	-2	-10	2	-17	-1	-3	-6	-4	9.600000	9.000000	6.900000
6	1	-2	21	1	-3	-3	-4	-4	-13	-38	0	-4	-10	-4	-1	9.600000	10.900000	4.600000
6	1	-2	21	1	-3	-3	-4	1	6	-29	24	6	1	-1	0	9.600000	10.900000	4.600000
6	1	-2	21	1	-3	-3	-4	0	4	42	4	1	-2	-3	0	7.600000	9.000000	6.900000
6	1	-2	21	1	-3	-3	-4	1	-3	23	11	-5	-5	-4	-2	7.600000	9.000000	6.900000
6	1	-2	21	1	-3	-3	-4	-5	5	30	-24	-12	-11	-7	-4	7.600000	9.000000	6.900000
6	1	-2	21	1	-3	-3	-4	0	2	54	30	5	9	6	-2	7.600000	9.000000	6.900000
6	1	-2	21	1	-3	-3	-4	-6	-7	-47	-14	-7	-4	-6	-2	7.600000	9.000000	4.600000
-3	10	76	56	12	3	-2	-2	-6	-7	-47	-14	-7	-4	-6	-2	7.600000	9.000000	4.600000
-3	-7	0	-1	-1	1	-1	-2	-6	-7	-47	-14	-7	-4	-6	-2	7.600000	9.000000	4.600000
-2	-6	19	-39	-7	-5	-2	-1	-6	-7	-47	-14	-7	-4	-6	-2	7.600000	9.000000	4.600000
-2	-6	19	-39	-7	-5	-2	-1	-9	-35	-117	-45	-7	0	2	-3	7.600000	9.000000	4.600000
-2	-6	19	-39	-7	-5	-2	-1	3	-6	-38	16	3	-6	-3	3	7.600000	9.000000	4.600000
-2	-6	19	-39	-7	-5	-2	-1	1	19	21	10	2	4	-5	0	7.600000	9.000000	4.600000
-2	-6	19	-39	-7	-5	-2	-1	-6	-13	32	-7	-5	0	1	-2	7.600000	9.000000	4.600000
-2	-6	19	-39	-7	-5	-2	-1	-6	-13	32	-7	-5	0	1	-2	7.600000	9.000000	4.600000
-2	-6	19	-39	-7	-5	-2	-1	1	-3	-6	8	8	-6	0	0	7.600000	9.000000	4.600000
-2	-6	19	-39	-7	-5	-2	-1	1	-3	-6	8	8	-6	0	0	7.600000	9.000000	6.900000
-2	-6	19	-39	-7	-5	-2	-1	4	9	87	3	6	-1	-1	1	7.600000	9.000000	6.900000
-2	-6	19	-39	-7	-5	-2	-1	-3	-5	-11	-1	1	-10	-7	-3	7.600000	9.000000	6.900000
-2	-6	19	-39	-7	-5	-2	-1	-1	-5	-50	-8	-9	-5	-1	2	7.600000	9.000000	6.900000
-2	-6	19	-39	-7	-5	-2	-1	-8	-27	-45	-23	1	5	2	-4	7.600000	9.000000	6.900000
-2	-6	19	-39	-7	-5	-2	-1	-4	-15	-22	-7	-4	1	0	2	7.600000	9.000000	6.900000
-1	-7	-23	-12	-7	-3	-1	-1	-4	-15	-22	-7	-4	1	0	2	7.600000	9.000000	6.900000
1	12	-8	20	9	4	-2	0	-4	-15	-22	-7	-4	1	0	2	7.600000	9.000000	6.900000
-1	-1	9	13	-3	-4	-4	-2	-4	-15	-22	-7	-4	1	0	2	7.600000	9.000000	6.900000
-1	-1	9	13	-3	-4	-4	-2	5	6	1	11	6	4	1	-1	7.600000	9.000000	4.600000
-1	-1	9	13	-3	-4	-4	-2	2	12	21	10	1	1	0	-2	7.600000	9.000000	4.600000
-1	-1	9	13	-3	-4	-4	-2	7	25	108	50	3	4	6	2	7.600000	9.000000	4.600000
-1	-1	9	13	-3	-4	-4	-2	-5	-15	-46	-20	-5	2	0	-2	7.600000	9.000000	4.600000
-1	-1	9	13	-3	-4	-4	-2	-5	-15	-46	-20	-5	2	0	-2	7.600000	9.000000	4.600000
-1	-1	9	13	-3	-4	-4	-2	-5	-22	-33	-24	-2	-3	-3	-2	7.600000	9.000000	4.600000
-1	-1	9	13	-3	-4	-4	-2	-2	3	26	-12	-7	-8	-6	-4	7.600000	9.000000	6.900000
-1	-1	9	13	-3	-4	-4	-2	-10	-11	6	-21	-12	3	0	-6	7.600000	9.000000	6.900000
-1	-1	9	13	-3	-4	-4	-2	2	11	19	-4	-6	-2	1	-1	7.600000	9.000000	4.600000
-1	-1	9	13	-3	-4	-4	-2	-11	-12	-23	-27	-17	-3	-7	-8	7.600000	9.000000	4.600000
-1	-1	9	13	-3	-4	-4	-2	-11	-12	-23	-27	-17	-3	-7	-8	7.600000	9.000000	4.600000
-5	9	-82	-13	-6	0	-1	-7	-11	-12	-23	-27	-17	-3	-7	-8	7.600000	9.000000	4.600000
-5	9	-82	-13	-6	0	-1	-7	8	-7	-17	7	8	1	10	21	7.600000	9.000000	6.900000
0	-2	38	-40	-6	3	13	2	8	-7	-17	7	8	1	10	21	7.600000	9.000000	6.900000
-3	6	31	7	5	3	9	1	8	-7	-17	7	8	1	10	21	7.600000	9.000000	6.900000
-3	6	31	7	5	3	9	1	-5	-6	-7	-23	-2	-2	-9	-13	7.600000	9.000000	6.900000
-3	6	31	7	5	3	9	1	0	5	20	13	-8	-6	0	3	7.600000	10.900000	6.900000
-3	6	31	7	5	3	9	1	0	5	20	13	-8	-6	0	3	7.600000	10.900000	6.900000
-3	6	31	7	5	3	9	1	-1	-1	-66	-10	4	0	-7	-12	7.600000	12.700000	4.600000
-3	6	31	7	5	3	9	1	-1	2	17	-15	-15	-12	-1	12	7.600000	12.700000	4.600000
-3	6	31	7	5	3	9	1	1	10	0	10	12	1	-11	-6	7.600000	20.000000	4.600000
-3	6	31	7	5	3	9	1	-2	16	48	38	0	6	5	-2	7.600000	20.000000	4.600000
-3	6	31	7	5	3	9	1	9	1	-29	0	4	3	-9	-2	7.600000	67.200000	4.600000
-3	6	31	7	5	3	9	1	-6	-2	-23	-13	-4	-2	-2	-11	7.600000	67.200000	4.600000
-3	6	31	7	5	3	9	1	-11	3	33	-4	-1	-4	4	-2	7.600000	67.200000	4.600000
3	-20	6	27	1	-7	-11	-3	-11	3	33	-4	-1	-4	4	-2	7.600000	67.200000	4.600000
3	-20	6	27	1	-7	-11	-3	-10	-7	32	-24	-9	-9	-22	-38	7.600000	89.000000	4.600000
17	-3	80	-9	-3	-4	-37	10	-10	-7	32	-24	-9	-9	-22	-38	7.600000	89.000000	4.600000
-17	28	-57	44	4	2	24	-4	-10	-7	32	-24	-9	-9	-22	-38	7.600000	89.000000	4.600000
1	-4	-18	-10	0	3	15	24	-10	-7	32	-24	-9	-9	-22	-38	7.600000	89.000000	4.600000
1	-4	-18	-10	0	3	15	24	-10	-7	32	-24	-9	-9	-22	-38	7.600000	94.500000	4.600000
1	-4	-18	-10	0	3	15	24	-6	2	44	24	-4	-12	-7	20	7.600000	94.500000	4.600000
1	-4	-18	-10	0	3	15	24	5	3	5	-33	-6	-1	4	11	7.600000	98.100000	4.600000
1	-4	-18	-10	0	3	15	24	-1	12	-3	32	15	0	1	11	7.600000	98.100000	4.600000
1	-4	-18	-10	0	3	15	24	-10	-11	-11	-3	-9	0	2	-5	7.600000	98.100000	6.900000
1	-4	-18	-10	0	3	15	24	-10	-11	-11	-3	-9	0	2	-5	7.600000	98.100000	6.900000
1	-4	-18	-10	0	3	15	24	14	20	3	20	12	16	6	3	7.600000	98.100000	6.900000
1	-4	-18	-10	0	3	15	24	-5	-13	-40	-23	-6	3	8	9	7.600000	98.100000	4.600000
1	-4	-18	-10	0	3	15	24	-5	-13	-40	-23	-6	3	8	9	7.600000	98.100000	4.600000
1	-4	-18	-10	0	3	15	24	7	17	39	36	15	14	-3	-13	7.600000	98.100000	6.900000
1	-4	-18	-10	0	3	15	24	-9	-3	2	-7	-1	-20	-27	-14	7.600000	98.100000	6.900000
1	-4	-18	-10	0	3	15	24	6	-1	2	-17	-1	-3	4	23	7.600000	98.100000	4.600000
1	-4	-18	-10	0	3	15	24	6	-1	2	-17	-1	-3	4	23	7.600000	98.100000	4.600000
-4	11	12	14	2	-5	-3	-10	6	-1	2	-17	-1	-3	4	23	7.600000	98.100000	4.600000
1	-1	14	-5	-6	-5	-9	-17	6	-1	2	-17	-1	-3	4	23	7.600000	98.100000	4.600000
-7	22	28	17	5	3	12	-23	6	-1	2	-17	-1	-3	4	23	7.600000	98.100000	4.600000
-7	22	28	17	5	3	12	-23	-3	-1	30	22	3	2	0	6	7.600000	98.100000	4.600000
-7	22	28	17	5	3	12	-23	-3	-1	30	22	3	2	0	6	7.600000	98.100000	4.600000
-7	22	28	17	5	3	12	-23	-7	-15	-26	-37	-12	-7	-2	3	7.600000	98.100000	4.600000
-7	22	28	17	5	3	12	-23	2	-1	-23	2	5	-5	16	33	7.600000	98.100000	4.600000
-7	22	28	17	5	3	12	-23	2	-1	-23	2	5	-5	16	33	7.600000	98.100000	4.600000
-7	22	28	17	5	3	12	-23	-5	1	19	-9	-13	-10	-13	-28	7.600000	98.100000	4.600000
-7	22	28	17	5	3	12	-23	-7	-10	-14	-14	-3	-1	-9	-17	7.600000	98.100000	4.600000
-7	22	28	17	5	3	12	-23	-3	5	25	37	-5	1	-11	-22	7.600000	98.100000	4.600000
-7	22	28	17	5	3	12	-23	1	0	-10	-1	-8	-6	9	16	7.600000	98.100000	4.600000
-7	22	28	17	5	3	12	-23	4	4	8	22	0	6	5	6	7.600000	98.100000	6.900000
-7	22	28	17	5	3	12	-23	4	4	8	22	0	6	5	6	7.600000	98.100000	6.900000
-7	22	28	17	5	3	12	-23	-3	-8	-7	-22	-5	1	3	7	7.600000	98.100000	4.600000
-3	1	19	10	3	0	-1	-1	-3	-8	-7	-22	-5	1	3	7	7.600000	98.100000	4.600000
0	-5	-4	22	-22	-10	-6	2	-3	-8	-7	-22	-5	1	3	7	7.600000	98.100000	4.600000
-1	3	19	-10	-3	0	-4	0	-3	-8	-7	-22	-5	1	3	7	7.600000	98.100000	4.600000
-1	3	19	-10	-3	0	-4	0	-2	-7	-26	-5	1	-3	-3	1	7.600000	98.100000	4.600000
-1	3	19	-10	-3	0	-4	0	-2	-7	-26	-5	1	-3	-3	1	7.600000	98.100000	4.600000
-1	3	19	-10	-3	0	-4	0	0	10	46	5	-2	-2	9	-4	7.600000	98.100000	6.900000
-1	3	19	-10	-3	0	-4	0	-6	-8	-12	-4	14	-2	-5	-8	7.600000	98.100000	6.900000
-1	3	19	-10	-3	0	-4	0	-3	-3	-4	3	-13	-5	-3	0	7.600000	98.100000	4.600000
-1	3	19	-10	-3	0	-4	0	-3	-3	-4	3	-13	-5	-3	0	7.600000	98.100000	4.600000
-1	3	19	-10	-3	0	-4	0	1	4	1	0	6	4	0	7	7.600000	96.300000	4.600000
-1	3	19	-10	-3	0	-4	0	1	4	1	0	6	4	0	7	7.600000	96.300000	4.600000
-1	3	19	-10	-3	0	-4	0	-3	-9	16	-18	-5	4	1	-2	7.600000	96.300000	4.600000
-1	3	19	-10	-3	0	-4	0	6	19	18	9	-12	-7	-7	-4	7.600000	96.300000	4.600000
-1	3	19	-10	-3	0	-4	0	-3	-8	-9	0	2	1	-2	-2	7.600000	96.300000	4.600000
-1	3	19	-10	-3	0	-4	0	13	32	35	27	-3	-2	-4	3	7.600000	90.900000	4.600000
-2	-9	9	-4	3	0	-2	0	13	32	35	27	-3	-2	-4	3	7.600000	90.900000	4.600000
-2	-9	9	-4	3	0	-2	0	13	32	35	27	-3	-2	-4	3	7.600000	90.900000	4.600000
-2	-9	9	-4	3	0	-2	0	-2	6	-28	21	2	0	1	-3	7.600000	90.900000	4.600000
-2	-9	9	-4	3	0	-2	0	2	4	-13	-4	-3	1	-3	-1	7.600000	52.700000	4.600000
1	-2	-10	-26	4	1	2	2	2	4	-13	-4	-3	1	-3	-1	7.600000	52.700000	4.600000
1	-2	-10	-26	4	1	2	2	5	33	98	37	13	11	6	3	7.600000	52.700000	4.600000
1	-2	-10	-26	4	1	2	2	0	-4	59	-2	-5	4	-3	-2	7.600000	23.600000	4.600000
1	-2	-10	-26	4	1	2	2	-10	-21	28	-45	-22	-13	-7	-5	7.600000	23.600000	4.600000
1	-2	-10	-26	4	1	2	2	-3	-9	-8	3	3	1	3	1	7.600000	18.100000	4.600000
-3	14	-15	2	2	0	-1	0	-3	-9	-8	3	3	1	3	1	7.600000	18.100000	4.600000
-3	14	-15	2	2	0	-1	0	-10	-30	-81	-10	-10	-6	-2	-5	7.600000	18.100000	4.600000
-3	14	-15	2	2	0	-1	0	1	-13	-40	-11	2	-3	-2	2	7.600000	12.700000	6.900000
-3	14	-15	2	2	0	-1	0	1	-13	-40	-11	2	-3	-2	2	7.600000	12.700000	6.900000
-3	14	-15	2	2	0	-1	0	-5	-16	-60	-10	-1	-13	-12	-4	7.600000	12.700000	6.900000
2	3	-4	-21	2	-4	-1	0	-5	-16	-60	-10	-1	-13	-12	-4	7.600000	12.700000	6.900000
2	3	-4	-21	2	-4	-1	0	-4	-7	-104	-10	1	2	0	0	7.600000	10.900000	6.900000
2	3	-4	-21	2	-4	-1	0	-4	-7	-104	-10	1	2	0	0	7.600000	10.900000	6.900000
2	3	-4	-21	2	-4	-1	0	5	29	105	49	11	10	6	0	7.600000	10.900000	4.600000
2	3	-4	-21	2	-4	-1	0	1	-3	-24	-27	-8	-3	0	-3	7.600000	10.900000	4.600000
-7	-24	57	27	3	-4	-3	-2	1	-3	-24	-27	-8	-3	0	-3	7.600000	10.900000	4.600000
-7	-24	57	27	3	-4	-3	-2	-2	4	-27	32	7	0	0	-3	7.600000	10.900000	6.900000
-7	-24	57	27	3	-4	-3	-2	5	-1	-10	6	-1	-6	-3	2	7.600000	10.900000	6.900000
-7	-24	57	27	3	-4	-3	-2	2	11	-22	1	4	11	0	-1	7.600000	10.900000	6.900000
3	10	37	28	-7	-2	-1	-2	2	11	-22	1	4	11	0	-1	7.600000	10.900000	6.900000
3	10	37	28	-7	-2	-1	-2	2	11	-22	1	4	11	0	-1	7.600000	10.900000	6.900000
3	10	37	28	-7	-2	-1	-2	18	-12	-37	-28	-5	-4	-3	-3	7.600000	10.900000	6.900000
3	10	37	28	-7	-2	-1	-2	-7	-20	-61	-15	-7	-7	-4	-4	7.600000	10.900000	6.900000
3	10	37	28	-7	-2	-1	-2	35	11	27	-1	-3	-4	-1	1	7.600000	10.900000	11.600000
1	-13	27	2	-10	-6	-1	-2	35	11	27	-1	-3	-4	-1	1	7.600000	10.900000	11.600000
1	-13	27	2	-10	-6	-1	-2	35	11	27	-1	-3	-4	-1	1	7.600000	10.900000	11.600000
1	-13	27	2	-10	-6	-1	-2	16	-8	-97	-32	2	-2	-2	-3	7.600000	12.700000	20.900000
1	-13	27	2	-10	-6	-1	-2	39	15	15	-7	-8	1	6	6	7.600000	12.700000	20.900000
1	-13	27	2	-10	-6	-1	-2	36	5	-75	13	2	2	2	11	7.600000	12.700000	20.900000
-17	-28	48	-4	-10	-10	-8	-8	36	5	-75	13	2	2	2	11	7.600000	12.700000	20.900000
-17	-28	48	-4	-10	-10	-8	-8	36	5	-75	13	2	2	2	11	7.600000	16.300000	79.000000
-17	-28	48	-4	-10	-10	-8	-8	-83	-20	-33	-29	-12	-8	-8	-20	7.600000	16.300000	79.000000
-17	-28	48	-4	-10	-10	-8	-8	70	24	93	11	5	14	15	15	9.600000	70.900000	95.300000
27	28	14	-16	-2	5	5	13	70	24	93	11	5	14	15	15	9.600000	70.900000	95.300000
27	28	14	-16	-2	5	5	13	-14	-20	-35	29	12	11	5	4	9.600000	70.900000	95.300000
27	28	14	-16	-2	5	5	13	-8	13	98	32	5	5	7	2	9.600000	89.000000	97.600000
27	28	14	-16	-2	5	5	13	4	-11	24	-10	5	7	9	4	9.600000	89.000000	97.600000
-9	24	-47	-27	1	8	4	4	4	-11	24	-10	5	7	9	4	9.600000	89.000000	97.600000
-9	24	-47	-27	1	8	4	4	6	22	17	20	-1	5	3	-3	9.600000	92.700000	97.600000
-9	24	-47	-27	1	8	4	4	6	22	17	20	-1	5	3	-3	9.600000	92.700000	97.600000
-9	24	-47	-27	1	8	4	4	-29	34	72	-3	-1	0	1	4	9.600000	92.700000	97.600000
-9	24	-47	-27	1	8	4	4	49	4	28	7	-2	-8	-1	2	9.600000	92.700000	97.600000
29	-6	-32	-11	0	3	-1	6	49	4	28	7	-2	-8	-1	2	9.600000	92.700000	97.600000
29	-6	-32	-11	0	3	-1	6	49	4	28	7	-2	-8	-1	2	9.600000	90.900000	97.600000
29	-6	-32	-11	0	3	-1	6	-22	-14	-88	-22	1	0	-5	-8	9.600000	90.900000	97.600000
29	-6	-32	-11	0	3	-1	6	-10	-22	-27	-10	1	-5	-2	-1	9.600000	90.900000	97.600000
29	-6	-32	-11	0	3	-1	6	50	-5	-56	-16	-4	1	3	6	9.600000	90.900000	97.600000
22	11	-53	-8	1	0	-2	5	50	-5	-56	-16	-4	1	3	6	9.600000	90.900000	97.600000
22	11	-53	-8	1	0	-2	5	-25	8	21	15	-7	-1	-2	-1	9.600000	90.900000	97.600000
22	11	-53	-8	1	0	-2	5	-13	-14	-108	-13	6	4	-3	-6	9.600000	90.900000	97.600000
22	11	-53	-8	1	0	-2	5	-13	-14	-108	-13	6	4	-3	-6	9.600000	90.900000	97.600000
-14	0	13	19	5	-1	-4	-2	-13	-14	-108	-13	6	4	-3	-6	9.600000	90.900000	97.600000
-14	0	13	19	5	-1	-4	-2	-11	-7	-30	-15	-8	-4	-2	0	9.600000	89.000000	97.600000
-14	0	13	19	5	-1	-4	-2	-14	-29	-23	-27	-12	-11	-7	-7	9.600000	89.000000	97.600000
-14	0	13	19	5	-1	-4	-2	15	29	117	57	-3	-10	-3	1	9.600000	87.200000	97.600000
-15	-7	-33	-14	0	-1	0	-1	15	29	117	57	-3	-10	-3	1	9.600000	87.200000	97.600000
-15	-7	-33	-14	0	-1	0	-1	-12	11	57	12	-4	3	0	0	9.600000	87.200000	97.600000
-15	-7	-33	-14	0	-1	0	-1	0	-16	-4	-19	-5	-1	-1	0	9.600000	85.400000	95.300000
-15	-7	-33	-14	0	-1	0	-1	3	-8	20	-12	-2	-3	-6	-3	9.600000	85.400000	95.300000
-15	-7	-33	-14	0	-1	0	-1	0	6	26	-2	0	-2	-3	1	9.600000	85.400000	95.300000
-1	7	10	-7	-1	-4	-4	0	0	6	26	-2	0	-2	-3	1	9.600000	85.400000	95.300000
-1	7	10	-7	-1	-4	-4	0	-13	-15	-48	-17	9	7	5	-5	9.600000	85.400000	95.300000
-1	7	10	-7	-1	-4	-4	0	-13	-15	-48	-17	9	7	5	-5	9.600000	85.400000	95.300000
-1	7	10	-7	-1	-4	-4	0	-17	11	-98	-11	-1	3	0	-1	9.600000	81.800000	95.300000
-6	3	44	-4	-4	-4	0	-1	-17	11	-98	-11	-1	3	0	-1	9.600000	81.800000	95.300000
-6	3	44	-4	-4	-4	0	-1	37	5	-75	15	-4	-1	-1	4	9.600000	81.800000	95.300000
-6	3	44	-4	-4	-4	0	-1	40	8	28	-5	-2	0	0	6	9.600000	81.800000	95.300000
-6	3	44	-4	-4	-4	0	-1	40	8	28	-5	-2	0	0	6	9.600000	81.800000	95.300000
-10	-11	9	3	-7	-3	-5	-6	40	8	28	-5	-2	0	0	6	9.600000	81.800000	95.300000
-10	-11	9	3	-7	-3	-5	-6	25	5	32	3	11	4	2	5	9.600000	81.800000	95.300000
-10	-11	9	3	-7	-3	-5	-6	-17	-6	27	0	0	1	4	-3	9.600000	81.800000	95.300000
-10	-11	9	3	-7	-3	-5	-6	-24	-2	18	18	-1	-8	-8	-4	9.600000	81.800000	95.300000
-3	-3	5	-29	1	-2	-5	-2	-24	-2	18	18	-1	-8	-8	-4	9.600000	81.800000	95.300000
-3	-3	5	-29	1	-2	-5	-2	5	8	-42	-8	-9	-4	-2	1	9.600000	81.800000	95.300000
-3	-3	5	-29	1	-2	-5	-2	-18	-10	-22	-25	-11	-12	-5	-6	9.600000	81.800000	93.000000
-3	-3	5	-29	1	-2	-5	-2	-9	6	15	-8	-8	-2	-2	-5	9.600000	81.800000	93.000000
-3	-3	5	-29	1	-2	-5	-2	-6	-1	28	-1	8	-3	-1	1	9.600000	80.000000	95.300000
0	6	-29	31	7	2	1	0	-6	-1	28	-1	8	-3	-1	1	9.600000	80.000000	95.300000
0	6	-29	31	7	2	1	0	-6	-1	28	-1	8	-3	-1	1	9.600000	80.000000	95.300000
0	6	-29	31	7	2	1	0	-1	14	-18	30	13	5	2	1	9.600000	80.000000	95.300000
0	6	-29	31	7	2	1	0	-5	10	-13	-17	1	1	1	-2	9.600000	74.500000	90.600000
0	6	-29	31	7	2	1	0	0	0	-56	-4	5	5	-2	-1	9.600000	74.500000	90.600000
-1	-7	21	27	8	-3	-1	-1	0	0	-56	-4	5	5	-2	-1	9.600000	74.500000	90.600000
-1	-7	21	27	8	-3	-1	-1	3	11	-70	1	0	4	0	3	9.600000	47.200000	81.300000
-1	-7	21	27	8	-3	-1	-1	-10	-23	21	-15	-18	-6	-5	-4	9.600000	47.200000	81.300000
-1	-7	21	27	8	-3	-1	-1	-10	-23	21	-15	-18	-6	-5	-4	9.600000	25.400000	58.100000
-1	-7	21	27	8	-3	-1	-1	-5	0	24	1	2	3	1	-2	9.600000	25.400000	58.100000
0	-13	-17	8	0	-4	-2	-1	-5	0	24	1	2	3	1	-2	9.600000	25.400000	58.100000
0	-13	-17	8	0	-4	-2	-1	0	-1	93	6	-4	-4	-1	-2	9.600000	18.100000	32.500000
0	-13	-17	8	0	-4	-2	-1	0	-1	93	6	-4	-4	-1	-2	9.600000	18.100000	32.500000
0	-13	-17	8	0	-4	-2	-1	-3	-5	-10	-1	2	-3	-4	-1	9.600000	16.300000	23.200000
2	9	55	17	-1	-1	1	1	-3	-5	-10	-1	2	-3	-4	-1	9.600000	16.300000	23.200000
2	9	55	17	-1	-1	1	1	-7	-14	-38	-9	3	3	1	-3	9.600000	16.300000	23.200000
2	9	55	17	-1	-1	1	1	1	15	64	13	6	0	0	0	7.600000	14.500000	18.600000
2	9	55	17	-1	-1	1	1	-4	-15	-71	-17	-7	-2	0	-2	7.600000	14.500000	18.600000
2	9	55	17	-1	-1	1	1	-4	-15	-71	-17	-7	-2	0	-2	9.600000	14.500000	16.200000
-3	9	-23	-10	-9	-3	-1	-2	-4	-15	-71	-17	-7	-2	0	-2	9.600000	14.500000	16.200000
-3	9	-23	-10	-9	-3	-1	-2	-4	-15	-34	-11	-6	-5	-6	-2	9.600000	14.500000	16.200000
-3	9	-23	-10	-9	-3	-1	-2	2	-6	15	1	12	8	5	0	9.600000	14.500000	16.200000
-3	9	-23	-10	-9	-3	-1	-2	-5	-30	-52	-3	-8	-1	-3	-3	9.600000	12.700000	13.900000
-3	9	-23	-10	-9	-3	-1	-2	0	11	106	9	-11	-2	0	-1	9.600000	12.700000	13.900000
0	-7	-46	-13	7	1	0	0	0	11	106	9	-11	-2	0	-1	9.600000	12.700000	13.900000
0	-7	-46	-13	7	1	0	0	0	11	106	9	-11	-2	0	-1	9.600000	12.700000	13.900000
0	-7	-46	-13	7	1	0	0	-8	-14	-39	-43	-6	0	0	-3	9.600000	12.700000	13.900000
0	-7	-46	-13	7	1	0	0	9	9	-57	10	3	4	6	1	9.600000	12.700000	13.900000
0	-7	-46	-13	7	1	0	0	1	5	-26	10	-4	-8	-3	0	9.600000	12.700000	11.600000
-1	2	-15	-11	-2	1	0	0	1	5	-26	10	-4	-8	-3	0	9.600000	12.700000	11.600000
-1	2	-15	-11	-2	1	0	0	-2	-7	-30	-5	-5	-8	-6	-4	9.600000	12.700000	11.600000
-1	2	-15	-11	-2	1	0	0	-2	-7	-30	-5	-5	-8	-6	-4	9.600000	12.700000	13.900000
-1	2	-15	-11	-2	1	0	0	-3	-3	-44	-5	-6	-8	-3	-2	9.600000	12.700000	13.900000
-1	2	-15	-11	-2	1	0	0	-9	-16	-19	1	1	6	-2	-2	9.600000	12.700000	11.600000
-4	-8	21	15	-2	-7	-2	-4	-9	-16	-19	1	1	6	-2	-2	9.600000	12.700000	11.600000
-4	-8	21	15	-2	-7	-2	-4	-16	-11	-59	-34	-9	-2	-2	-10	9.600000	12.700000	11.600000
-4	-8	21	15	-2	-7	-2	-4	-16	-11	-59	-34	-9	-2	-2	-10	9.600000	12.700000	11.600000
-4	-8	21	15	-2	-7	-2	-4	-5	-26	-57	-6	-3	-5	-4	-4	9.600000	12.700000	13.900000
-1	-3	-58	-6	1	0	-2	1	-5	-26	-57	-6	-3	-5	-4	-4	9.600000	12.700000	13.900000
-1	-3	-58	-6	1	0	-2	1	6	5	50	30	5	-2	1	5	9.600000	12.700000	13.900000
-1	-3	-58	-6	1	0	-2	1	-17	-39	-108	-63	-30	-12	-1	-7	9.600000	12.700000	13.900000
-1	-3	-58	-6	1	0	-2	1	11	30	84	62	14	12	14	10	11.500000	14.500000	11.600000
-1	0	-6	-44	0	-7	-9	-3	11	30	84	62	14	12	14	10	11.500000	14.500000	11.600000
-1	0	-6	-44	0	-7	-9	-3	-3	0	-6	-5	-9	-22	-11	-2	11.500000	14.500000	11.600000
-1	0	-6	-44	0	-7	-9	-3	21	42	94	76	19	13	-3	5	11.500000	18.100000	11.600000
-1	0	-6	-44	0	-7	-9	-3	-5	-19	-73	-32	12	-1	2	-4	11.500000	18.100000	11.600000
-1	0	-6	-44	0	-7	-9	-3	-5	-19	-73	-32	12	-1	2	-4	15.300000	23.600000	13.900000
-1	-5	7	-20	1	8	4	1	-5	-19	-73	-32	12	-1	2	-4	15.300000	23.600000	13.900000
-1	-5	7	-20	1	8	4	1	-1	-19	-39	-33	-5	14	4	1	15.300000	23.600000	13.900000
-1	-5	7	-20	1	8	4	1	-8	-5	-22	2	-1	-2	-5	-7	17.300000	29.000000	13.900000
-1	-5	7	-20	1	8	4	1	11	36	48	22	7	-6	-5	4	17.300000	29.000000	13.900000
-6	-1	-25	-28	-7	-5	-11	-10	11	36	48	22	7	-6	-5	4	17.300000	29.000000	13.900000
-6	-1	-25	-28	-7	-5	-11	-10	-2	5	-28	-6	0	-5	-1	-2	17.300000	34.500000	13.900000
-6	-1	-25	-28	-7	-5	-11	-10	-3	4	-29	-20	-10	-1	-2	-2	17.300000	34.500000	13.900000
-6	-1	-25	-28	-7	-5	-11	-10	3	-4	44	25	-10	0	-5	2	17.300000	34.500000	13.900000
-6	-1	-25	-28	-7	-5	-11	-10	0	-5	2	9	5	4	3	4	19.200000	45.400000	13.900000
-7	3	-20	11	1	2	-13	-2	0	-5	2	9	5	4	3	4	19.200000	45.400000	13.900000
-7	3	-20	11	1	2	-13	-2	8	-12	-16	-22	-9	3	7	3	19.200000	45.400000	13.900000
-7	3	-20	11	1	2	-13	-2	95	10	7	-10	-4	2	4	32	21.100000	58.100000	13.900000
-7	3	-20	11	1	2	-13	-2	95	10	7	-10	-4	2	4	32	21.100000	58.100000	13.900000
-7	3	-20	11	1	2	-13	-2	-47	-46	-55	-29	-8	-8	-11	-24	21.100000	72.700000	13.900000
4	14	18	8	-6	-4	-7	0	-47	-46	-55	-29	-8	-8	-11	-24	21.100000	72.700000	13.900000
4	14	18	8	-6	-4	-7	0	-2	-1	-45	-9	-6	10	24	3	21.100000	72.700000	13.900000
4	14	18	8	-6	-4	-7	0	-2	-1	-45	-9	-6	10	24	3	21.100000	72.700000	13.900000
4	14	18	8	-6	-4	-7	0	7	51	127	17	5	4	10	29	23.000000	81.800000	16.200000
4	14	18	8	-6	-4	-7	0	7	51	127	17	5	4	10	29	23.000000	81.800000	16.200000
3	16	-21	-23	-7	-1	5	1	7	51	127	17	5	4	10	29	23.000000	81.800000	16.200000
3	16	-21	-23	-7	-1	5	1	-12	-16	-50	-14	-4	-15	-15	-14	25.000000	87.200000	20.900000
3	16	-21	-23	-7	-1	5	1	-15	-4	84	21	-8	-15	-30	-14	25.000000	87.200000	20.900000
3	16	-21	-23	-7	-1	5	1	-15	-4	84	21	-8	-15	-30	-14	26.900000	89.000000	25.500000
-46	-12	68	28	1	4	-2	-2	-15	-4	84	21	-8	-15	-30	-14	26.900000	89.000000	25.500000
-46	-12	68	28	1	4	-2	-2	66	34	-128	-21	20	19	12	68	26.900000	89.000000	25.500000
-46	-12	68	28	1	4	-2	-2	-48	-41	-50	19	-13	-16	-23	-39	40.300000	92.700000	32.500000
-46	-12	68	28	1	4	-2	-2	5	-20	-11	-37	-8	-8	-7	-23	61.500000	92.700000	39.500000
6	2	-22	-8	-3	-5	32	6	5	-20	-11	-37	-8	-8	-7	-23	61.500000	92.700000	39.500000
6	2	-22	-8	-3	-5	32	6	-59	-22	-48	5	-5	-12	-3	-28	61.500000	92.700000	39.500000
6	2	-22	-8	-3	-5	32	6	3	35	83	36	6	0	2	9	61.500000	92.700000	39.500000
6	2	-22	-8	-3	-5	32	6	38	-14	-67	-22	-6	0	-3	2	73.000000	92.700000	41.800000
6	2	-22	-8	-3	-5	32	6	4	52	127	51	12	-1	-1	2	73.000000	92.700000	41.800000
4	14	18	9	-5	-5	0	-2	4	52	127	51	12	-1	-1	2	73.000000	92.700000	41.800000
4	14	18	9	-5	-5	0	-2	18	-5	67	-21	-9	-3	-1	-5	80.700000	94.500000	46.500000
4	14	18	9	-5	-5	0	-2	18	-5	67	-21	-9	-3	-1	-5	80.700000	94.500000	46.500000
4	14	18	9	-5	-5	0	-2	-15	4	23	-8	5	8	7	4	90.300000	92.700000	44.100000
4	14	18	9	-5	-5	0	-2	81	-21	-116	-33	-18	-19	10	-3	90.300000	92.700000	44.100000
5	9	-41	-53	-18	-11	4	3	81	-21	-116	-33	-18	-19	10	-3	90.300000	92.700000	44.100000
5	9	-41	-53	-18	-11	4	3	81	-21	-116	-33	-18	-19	10	-3	94.200000	92.700000	44.100000
5	9	-41	-53	-18	-11	4	3	-57	6	-2	33	14	8	-25	-10	94.200000	92.700000	44.100000
5	9	-41	-53	-18	-11	4	3	-51	-20	-20	-10	-1	29	36	-6	96.100000	92.700000	51.100000
5	9	-41	-53	-18	-11	4	3	60	21	94	56	11	19	6	16	96.100000	92.700000	51.100000
-7	-22	-29	3	6	7	4	9	60	21	94	56	11	19	6	16	96.100000	92.700000	51.100000
-7	-22	-29	3	6	7	4	9	33	17	-28	-14	-1	-3	-1	8	96.100000	92.700000	51.100000
-7	-22	-29	3	6	7	4	9	-8	-14	0	-9	-8	-3	1	4	98.000000	92.700000	62.700000
-7	-22	-29	3	6	7	4	9	-23	-21	-74	-34	-4	1	-2	2	98.000000	92.700000	62.700000
13	-13	-25	-28	0	1	1	0	-23	-21	-74	-34	-4	1	-2	2	98.000000	92.700000	62.700000
13	-13	-25	-28	0	1	1	0	38	39	71	30	0	3	12	16	98.000000	92.700000	72.000000
13	-13	-25	-28	0	1	1	0	-6	9	119	44	15	3	1	-1	98.000000	92.700000	72.000000
13	-13	-25	-28	0	1	1	0	-22	11	-6	16	5	-10	-14	-6	98.000000	92.700000	81.300000
13	0	-49	-1	9	-10	-1	-2	-22	11	-6	16	5	-10	-14	-6	98.000000	92.700000	81.300000
13	0	-49	-1	9	-10	-1	-2	-22	11	-6	16	5	-10	-14	-6	98.000000	92.700000	81.300000
13	0	-49	-1	9	-10	-1	-2	-42	-14	-78	0	2	-13	1	-10	98.000000	92.700000	83.700000
13	0	-49	-1	9	-10	-1	-2	-16	-7	-27	2	4	7	4	-1	98.000000	92.700000	83.700000
13	0	-49	-1	9	-10	-1	-2	-36	-23	-93	-34	2	-4	-5	-15	98.000000	92.700000	86.000000
10	5	-12	-26	-10	4	7	0	-36	-23	-93	-34	2	-4	-5	-15	98.000000	92.700000	86.000000
10	5	-12	-26	-10	4	7	0	-36	-23	-93	-34	2	-4	-5	-15	98.000000	92.700000	86.000000
10	5	-12	-26	-10	4	7	0	-12	24	81	17	2	12	-2	1	98.000000	90.900000	86.000000
10	5	-12	-26	-10	4	7	0	12	4	20	54	3	3	7	-5	98.000000	90.900000	86.000000
10	5	-12	-26	-10	4	7	0	-11	-39	-114	-58	-20	-12	-14	1	98.000000	90.900000	88.300000
-6	-8	89	-13	-2	1	9	-5	-11	-39	-114	-58	-20	-12	-14	1	98.000000	90.900000	88.300000
-6	-8	89	-13	-2	1	9	-5	-11	-39	-114	-58	-20	-12	-14	1	98.000000	90.900000	88.300000
-6	-8	89	-13	-2	1	9	-5	83	21	-32	-27	-16	-5	8	16	98.000000	92.700000	90.600000
-6	-8	89	-13	-2	1	9	-5	-49	-25	42	-3	-4	-7	-24	-31	98.000000	92.700000	90.600000
-34	43	-11	19	4	-5	2	6	-49	-25	42	-3	-4	-7	-24	-31	98.000000	92.700000	90.600000
-34	43	-11	19	4	-5	2	6	58	55	107	31	-6	-16	-9	21	98.000000	92.700000	93.000000
-34	43	-11	19	4	-5	2	6	0	-56	-128	-98	-22	-20	-28	-23	98.000000	92.700000	93.000000
-34	43	-11	19	4	-5	2	6	-59	12	42	11	-5	-4	-32	-12	98.000000	92.700000	93.000000
-34	43	-11	19	4	-5	2	6	-128	-50	-58	-8	-3	2	5	-39	98.000000	92.700000	95.300000
-6	-20	-10	12	-4	-11	2	-2	-128	-50	-58	-8	-3	2	5	-39	98.000000	92.700000	95.300000
-6	-20	-10	12	-4	-11	2	-2	-35	15	11	37	16	0	0	10	98.000000	92.700000	95.300000
-6	-20	-10	12	-4	-11	2	-2	36	24	23	18	14	20	24	20	98.000000	94.500000	95.300000
-6	-20	-10	12	-4	-11	2	-2	36	24	23	18	14	20	24	20	98.000000	94.500000	95.300000
-6	-20	-10	12	-4	-11	2	-2	-32	3	-31	38	4	6	16	3	98.000000	94.500000	97.600000
80	9	-7	-30	-2	2	2	-7	-32	3	-31	38	4	6	16	3	98.000000	94.500000	97.600000
80	9	-7	-30	-2	2	2	-7	74	24	67	19	-2	3	7	12	98.000000	94.500000	97.600000
80	9	-7	-30	-2	2	2	-7	-12	39	105	10	4	11	6	7	98.000000	94.500000	97.600000
80	9	-7	-30	-2	2	2	-7	15	4	8	-6	4	3	-3	2	98.000000	94.500000	97.600000
80	9	-7	-30	-2	2	2	-7	15	4	8	-6	4	3	-3	2	98.000000	94.500000	97.600000
-18	-13	-35	-35	-4	2	-8	-5	15	4	8	-6	4	3	-3	2	98.000000	94.500000	97.600000
-18	-13	-35	-35	-4	2	-8	-5	4	11	19	10	-2	3	3	10	96.100000	94.500000	95.300000
-18	-13	-35	-35	-4	2	-8	-5	29	14	19	-10	5	-7	2	5	96.100000	94.500000	95.300000
-18	-13	-35	-35	-4	2	-8	-5	-61	-37	-59	-30	-12	-19	-10	-10	98.000000	94.500000	95.300000
-18	-13	-35	-35	-4	2	-8	-5	-7	5	-27	-5	4	3	1	-6	98.000000	94.500000	95.300000
0	-5	-16	-36	-3	0	-4	-1	-7	5	-27	-5	4	3	1	-6	98.000000	94.500000	95.300000
0	-5	-16	-36	-3	0	-4	-1	26	-17	9	-3	1	1	-3	0	98.000000	94.500000	95.300000
0	-5	-16	-36	-3	0	-4	-1	5	7	-51	6	18	5	0	3	96.100000	92.700000	95.300000
0	-5	-16	-36	-3	0	-4	-1	-1	-11	-2	-4	-2	-2	-3	-5	94.200000	92.700000	93.000000
-7	-6	-25	-21	5	3	3	0	-1	-11	-2	-4	-2	-2	-3	-5	94.200000	92.700000	93.000000
-7	-6	-25	-21	5	3	3	0	-1	-11	-2	-4	-2	-2	-3	-5	94.200000	92.700000	93.000000
-7	-6	-25	-21	5	3	3	0	5	19	-1	-19	-1	-1	1	-1	90.300000	80.000000	81.300000
-7	-6	-25	-21	5	3	3	0	-11	6	-18	19	5	5	4	0	90.300000	80.000000	81.300000
-7	-6	-25	-21	5	3	3	0	-4	4	12	16	0	0	1	0	73.000000	47.200000	46.500000
-2	-1	-4	42	-2	-3	0	0	-4	4	12	16	0	0	1	0	73.000000	47.200000	46.500000
-2	-1	-4	42	-2	-3	0	0	3	-12	-49	-13	-10	-3	-3	1	73.000000	47.200000	46.500000
-2	-1	-4	42	-2	-3	0	0	5	27	61	36	-3	-5	-3	2	30.700000	27.200000	23.200000
-2	-1	-4	42	-2	-3	0	0	5	27	61	36	-3	-5	-3	2	30.700000	27.200000	23.200000
-2	-1	-4	42	-2	-3	0	0	-4	0	22	10	2	1	-3	-3	30.700000	27.200000	23.200000
2	2	25	44	11	2	0	0	-4	0	22	10	2	1	-3	-3	30.700000	27.200000	23.200000
2	2	25	44	11	2	0	0	1	-2	50	18	0	2	-1	-2	11.500000	21.800000	18.600000
2	2	25	44	11	2	0	0	1	-2	50	18	0	2	-1	-2	11.500000	21.800000	18.600000
2	2	25	44	11	2	0	0	-2	7	27	16	6	2	-2	-2	9.600000	20.000000	18.600000
9	11	26	20	3	-6	-3	-2	-2	7	27	16	6	2	-2	-2	9.600000	20.000000	18.600000
9	11	26	20	3	-6	-3	-2	-7	-25	-41	-32	-9	-2	-6	0	9.600000	20.000000	18.600000
9	11	26	20	3	-6	-3	-2	-6	-19	-7	-2	-2	-3	-2	-1	7.600000	16.300000	16.200000
9	11	26	20	3	-6	-3	-2	-6	-19	-7	-2	-2	-3	-2	-1	7.600000	16.300000	16.200000
-12	-5	-50	-27	-4	-3	-2	-1	-6	-19	-7	-2	-2	-3	-2	-1	7.600000	16.300000	16.200000
-12	-5	-50	-27	-4	-3	-2	-1	7	9	62	23	5	6	5	0	5.700000	16.300000	16.200000
-12	-5	-50	-27	-4	-3	-2	-1	-2	-8	49	22	-1	-7	-4	-6	5.700000	16.300000	16.200000
-12	-5	-50	-27	-4	-3	-2	-1	-10	-17	-47	-10	-5	-6	-13	-6	7.600000	14.500000	16.200000
-12	-5	-50	-27	-4	-3	-2	-1	6	12	-56	23	-3	5	5	0	7.600000	14.500000	16.200000
11	6	-10	-2	-5	-3	-2	2	6	12	-56	23	-3	5	5	0	7.600000	14.500000	16.200000
11	6	-10	-2	-5	-3	-2	2	10	17	32	6	5	2	0	18	5.700000	14.500000	13.900000
11	6	-10	-2	-5	-3	-2	2	-9	-1	11	-23	-9	-9	-7	-10	5.700000	14.500000	13.900000
11	6	-10	-2	-5	-3	-2	2	2	2	-78	-5	-2	-1	-3	-1	5.700000	12.700000	13.900000
2	8	-44	-63	-12	-2	-1	4	2	2	-78	-5	-2	-1	-3	-1	5.700000	12.700000	13.900000
2	8	-44	-63	-12	-2	-1	4	2	2	-78	-5	-2	-1	-3	-1	5.700000	12.700000	13.900000
2	8	-44	-63	-12	-2	-1	4	1	2	-62	7	-2	-3	-4	-4	5.700000	12.700000	13.900000
2	8	-44	-63	-12	-2	-1	4	-1	1	12	-1	-3	4	6	0	5.700000	12.700000	13.900000
2	8	-44	-63	-12	-2	-1	4	-4	-21	-32	-36	-8	-2	-1	0	5.700000	10.900000	13.900000
-9	-6	18	13	0	-1	-1	-2	-4	-21	-32	-36	-8	-2	-1	0	5.700000	10.900000	13.900000
-9	-6	18	13	0	-1	-1	-2	-10	-12	-5	-32	-9	-4	-2	-13	5.700000	10.900000	13.900000
-9	-6	18	13	0	-1	-1	-2	1	1	9	1	-1	2	1	0	5.700000	12.700000	13.900000
-9	-6	18	13	0	-1	-1	-2	9	6	-31	2	8	2	1	3	5.700000	12.700000	13.900000
-4	10	-4	-1	2	2	0	-2	9	6	-31	2	8	2	1	3	5.700000	12.700000	13.900000
-4	10	-4	-1	2	2	0	-2	-21	-33	-28	-54	-19	-9	-4	-8	5.700000	10.900000	13.900000
-4	10	-4	-1	2	2	0	-2	-21	-33	-28	-54	-19	-9	-4	-8	5.700000	10.900000	13.900000
-4	10	-4	-1	2	2	0	-2	-10	-17	-1	-6	-7	-13	-10	-6	5.700000	10.900000	13.900000
-4	10	-4	-1	2	2	0	-2	5	14	-7	1	16	2	2	-1	5.700000	10.900000	13.900000
1	5	0	-9	-8	0	2	-1	5	14	-7	1	16	2	2	-1	5.700000	10.900000	13.900000
1	5	0	-9	-8	0	2	-1	-3	18	-14	-2	6	-3	-2	-3	5.700000	10.900000	13.900000
1	5	0	-9	-8	0	2	-1	4	-14	-12	-3	-13	-1	1	-3	5.700000	10.900000	13.900000
1	5	0	-9	-8	0	2	-1	0	-3	2	12	4	0	0	-1	5.700000	12.700000	13.900000
4	14	-55	-33	-11	-4	-3	1	0	-3	2	12	4	0	0	-1	5.700000	12.700000	13.900000
4	14	-55	-33	-11	-4	-3	1	-16	-6	-14	9	-3	-7	-12	-18	5.700000	12.700000	13.900000
4	14	-55	-33	-11	-4	-3	1	3	-16	-56	-48	-10	-7	3	11	7.600000	14.500000	13.900000
4	14	-55	-33	-11	-4	-3	1	3	8	7	-10	10	-5	-5	8	7.600000	14.500000	13.900000
10	-29	19	-24	-8	4	2	6	3	8	7	-10	10	-5	-5	8	7.600000	14.500000	13.900000
10	-29	19	-24	-8	4	2	6	3	8	7	-10	10	-5	-5	8	11.500000	14.500000	13.900000
10	-29	19	-24	-8	4	2	6	-48	-22	-15	-27	-4	-14	-4	-19	11.500000	14.500000	13.900000
10	-29	19	-24	-8	4	2	6	32	-10	97	12	-6	6	6	-2	30.700000	21.800000	16.200000
10	-29	19	-24	-8	4	2	6	-5	38	-9	6	14	35	32	49	30.700000	21.800000	16.200000
16	109	59	-23	-10	-12	-16	-2	-5	38	-9	6	14	35	32	49	30.700000	21.800000	16.200000
16	109	59	-23	-10	-12	-16	-2	13	-35	16	3	-21	-26	-23	-17	73.000000	61.800000	39.500000
16	109	59	-23	-10	-12	-16	-2	-72	-11	37	-6	-12	-14	-11	-20	73.000000	61.800000	39.500000
16	109	59	-23	-10	-12	-16	-2	-38	-10	91	33	15	9	11	-4	78.800000	74.500000	60.400000
16	109	59	-23	-10	-12	-16	-2	-22	-7	87	-24	-15	-5	9	-8	84.600000	83.600000	81.300000
-10	22	-20	1	1	-3	-2	0	-22	-7	87	-24	-15	-5	9	-8	84.600000	83.600000	81.300000
-10	22	-20	1	1	-3	-2	0	-5	-17	-52	-16	-4	-1	-8	7	84.600000	83.600000	81.300000
-10	22	-20	1	1	-3	-2	0	-5	-17	-52	-16	-4	-1	-8	7	88.400000	87.200000	88.300000
-10	22	-20	1	1	-3	-2	0	-29	-13	-22	-16	-3	-7	-4	-14	88.400000	87.200000	88.300000
-25	9	5	25	2	1	2	-7	-29	-13	-22	-16	-3	-7	-4	-14	88.400000	87.200000	88.300000
-25	9	5	25	2	1	2	-7	-2	-6	29	-22	-14	-16	-18	-8	92.300000	90.900000	90.600000
-25	9	5	25	2	1	2	-7	29	-13	-23	7	-13	-22	-15	-4	92.300000	90.900000	90.600000
-25	9	5	25	2	1	2	-7	29	-13	-23	7	-13	-22	-15	-4	94.200000	92.700000	93.000000
-25	9	5	25	2	1	2	-7	85	81	91	54	18	10	3	17	94.200000	92.700000	93.000000
-23	-18	97	20	-2	8	21	2	85	81	91	54	18	10	3	17	94.200000	92.700000	93.000000
-23	-18	97	20	-2	8	21	2	-39	-5	-32	-13	-5	5	11	-15	94.200000	92.700000	95.300000
-23	-18	97	20	-2	8	21	2	31	-14	-91	-24	-1	0	14	3	94.200000	92.700000	95.300000
-23	-18	97	20	-2	8	21	2	14	-9	-54	-41	-12	-2	6	2	96.100000	94.500000	95.300000
-38	-29	94	28	-9	-29	-49	-20	14	-9	-54	-41	-12	-2	6	2	96.100000	94.500000	95.300000
-38	-29	94	28	-9	-29	-49	-20	16	-32	-78	-26	-14	9	32	-9	96.100000	94.500000	95.300000
-38	-29	94	28	-9	-29	-49	-20	-26	22	-64	5	16	14	5	40	96.100000	94.500000	95.300000
-38	-29	94	28	-9	-29	-49	-20	-58	-11	8	-4	-1	1	-15	-5	96.100000	94.500000	95.300000
-56	-27	-12	-53	-19	-33	-65	-31	-58	-11	8	-4	-1	1	-15	-5	96.100000	94.500000	95.300000
-56	-27	-12	-53	-19	-33	-65	-31	55	-33	-5	-51	-14	4	22	-12	96.100000	94.500000	95.300000
-49	-14	-38	-31	0	-10	11	-30	55	-33	-5	-51	-14	4	22	-12	96.100000	94.500000	95.300000
-49	-14	-38	-31	0	-10	11	-30	-39	-18	-77	-7	-17	-13	-24	-15	96.100000	94.500000	95.300000
-49	-14	-38	-31	0	-10	11	-30	-11	-43	-48	-70	-21	-9	-12	-36	96.100000	94.500000	95.300000
-49	-14	-38	-31	0	-10	11	-30	22	30	96	11	1	9	20	22	96.100000	94.500000	95.300000
-49	-14	-38	-31	0	-10	11	-30	22	30	96	11	1	9	20	22	98.000000	96.300000	97.600000
-49	-14	-38	-31	0	-10	11	-30	-21	-5	2	0	2	7	0	-10	98.000000	96.300000	97.600000
-49	-14	-38	-31	0	-10	11	-30	-21	-5	2	0	2	7	0	-10	98.000000	96.300000	95.300000
10	-35	-109	-51	-3	42	11	9	-107	-1	32	22	19	26	-1	-12	98.000000	96.300000	95.300000
10	-35	-109	-51	-3	42	11	9	-107	-1	32	22	19	26	-1	-12	98.000000	96.300000	97.600000
10	-35	-109	-51	-3	42	11	9	16	12	44	-4	-4	-31	-21	-2	98.000000	96.300000	97.600000
10	-35	-109	-51	-3	42	11	9	-35	-51	-89	-16	-11	-16	-25	-14	98.000000	96.300000	97.600000
28	23	-60	-6	-2	-1	11	14	-35	-51	-89	-16	-11	-16	-25	-14	98.000000	96.300000	97.600000
28	23	-60	-6	-2	-1	11	14	3	-5	-26	-11	-8	-9	-17	-26	98.000000	96.300000	97.600000
28	23	-60	-6	-2	-1	11	14	3	-5	-26	-11	-8	-9	-17	-26	98.000000	96.300000	97.600000
28	23	-60	-6	-2	-1	11	14	-22	33	5	37	7	13	23	3	98.000000	96.300000	97.600000
28	23	-60	-6	-2	-1	11	14	-22	33	5	37	7	13	23	3	98.000000	96.300000	95.300000
86	78	41	0	-1	-12	6	14	-22	33	5	37	7	13	23	3	98.000000	96.300000	95.300000
86	78	41	0	-1	-12	6	14	69	-19	-102	-29	2	-16	-11	49	98.000000	96.300000	95.300000
86	78	41	0	-1	-12	6	14	-25	-37	-28	-7	-3	-9	-8	-39	98.000000	96.300000	97.600000
86	78	41	0	-1	-12	6	14	58	53	45	37	17	14	12	25	98.000000	96.300000	97.600000
-26	-4	14	-14	-6	-8	0	-8	58	53	45	37	17	14	12	25	98.000000	96.300000	97.600000
-26	-4	14	-14	-6	-8	0	-8	70	6	-68	16	-4	3	7	3	98.000000	96.300000	97.600000
-26	-4	14	-14	-6	-8	0	-8	-63	-33	-62	-15	-7	-8	-10	-33	98.000000	96.300000	97.600000
-26	-4	14	-14	-6	-8	0	-8	-63	-33	-62	-15	-7	-8	-10	-33	98.000000	96.300000	97.600000
-8	-16	-58	-11	-4	0	8	3	-63	-33	-62	-15	-7	-8	-10	-33	98.000000	96.300000	97.600000
-8	-16	-58	-11	-4	0	8	3	-74	16	8	-12	1	3	-3	3	98.000000	96.300000	97.600000
-8	-16	-58	-11	-4	0	8	3	-10	-46	-36	-42	-16	-8	2	-17	98.000000	96.300000	95.300000
-8	-16	-58	-11	-4	0	8	3	-36	0	105	26	-3	0	1	-24	98.000000	96.300000	95.300000
0	-15	-32	-32	1	-6	-11	-4	-36	0	105	26	-3	0	1	-24	98.000000	96.300000	95.300000
0	-15	-32	-32	1	-6	-11	-4	-70	3	-10	30	11	-18	-26	-15	98.000000	96.300000	95.300000
0	-15	-32	-32	1	-6	-11	-4	-70	3	-10	30	11	-18	-26	-15	98.000000	96.300000	97.600000
0	-15	-32	-32	1	-6	-11	-4	-44	16	39	-2	1	-1	-9	1	98.000000	96.300000	97.600000
0	-15	-32	-32	1	-6	-11	-4	17	15	38	-7	13	11	13	23	98.000000	96.300000	97.600000
-34	-14	-28	-14	-9	8	-1	-15	17	15	38	-7	13	11	13	23	98.000000	96.300000	97.600000
-34	-14	-28	-14	-9	8	-1	-15	-37	-9	-33	-1	-11	-19	-9	-9	98.000000	96.300000	95.300000
-34	-14	-28	-14	-9	8	-1	-15	36	4	-5	21	-7	-3	2	1	98.000000	96.300000	95.300000
-34	-14	-28	-14	-9	8	-1	-15	-24	14	41	14	-8	-10	9	-12	98.000000	96.300000	97.600000
1	21	-38	-17	6	-1	0	3	-24	14	41	14	-8	-10	9	-12	98.000000	96.300000	97.600000
1	21	-38	-17	6	-1	0	3	-8	-6	-35	-34	-14	-16	-14	-1	98.000000	96.300000	97.600000
1	21	-38	-17	6	-1	0	3	-9	8	-8	11	-3	1	-2	9	98.000000	96.300000	95.300000
1	21	-38	-17	6	-1	0	3	-9	8	-8	11	-3	1	-2	9	98.000000	96.300000	95.300000
1	21	-38	-17	6	-1	0	3	33	-17	54	22	9	14	-12	-22	98.000000	96.300000	95.300000
-43	-48	-34	25	20	20	-1	29	33	-17	54	22	9	14	-12	-22	98.000000	96.300000	95.300000
-43	-48	-34	25	20	20	-1	29	52	-6	-22	15	8	-4	9	22	98.000000	96.300000	95.300000
-43	-48	-34	25	20	20	-1	29	52	-6	-22	15	8	-4	9	22	98.000000	96.300000	97.600000
-43	-48	-34	25	20	20	-1	29	-60	-12	47	-3	-9	-9	-12	-25	98.000000	96.300000	97.600000
-43	-48	-34	25	20	20	-1	29	-22	-44	-102	-76	-11	3	3	-3	98.000000	96.300000	97.600000
-12	-5	8	18	18	2	3	-15	-22	-44	-102	-76	-11	3	3	-3	98.000000	96.300000	97.600000
-12	-5	8	18	18	2	3	-15	22	11	88	51	12	12	5	16	98.000000	96.300000	97.600000
-12	-5	8	18	18	2	3	-15	22	11	88	51	12	12	5	16	98.000000	96.300000	97.600000
-12	-5	8	18	18	2	3	-15	-39	-36	7	-63	-23	-47	-68	-1	98.000000	96.300000	97.600000
26	11	30	43	13	-18	35	0	-39	-36	7	-63	-23	-47	-68	-1	98.000000	96.300000	97.600000
26	11	30	43	13	-18	35	0	-18	6	-128	-10	-1	-4	1	8	98.000000	96.300000	97.600000
26	11	30	43	13	-18	35	0	74	-16	-107	-55	-20	-18	-11	6	98.000000	96.300000	97.600000
26	11	30	43	13	-18	35	0	52	70	59	89	27	17	49	-14	98.000000	96.300000	97.600000
26	11	30	43	13	-18	35	0	-11	-10	-102	-31	-12	-14	15	-6	98.000000	96.300000	97.600000
-17	-27	22	-13	-3	18	0	0	-11	-10	-102	-31	-12	-14	15	-6	98.000000	96.300000	97.600000
-17	-27	22	-13	-3	18	0	0	-11	-10	-102	-31	-12	-14	15	-6	98.000000	96.300000	97.600000
-17	-27	22	-13	-3	18	0	0	110	18	-52	-34	-5	15	19	26	98.000000	96.300000	97.600000
-17	-27	22	-13	-3	18	0	0	-25	-10	10	10	0	23	16	2	98.000000	96.300000	97.600000
-16	37	-86	-23	-3	-4	-13	-6	-25	-10	10	10	0	23	16	2	98.000000	96.300000	97.600000
-16	37	-86	-23	-3	-4	-13	-6	-73	4	95	34	18	-12	-35	-11	98.000000	96.300000	97.600000
-16	37	-86	-23	-3	-4	-13	-6	-73	4	95	34	18	-12	-35	-11	98.000000	96.300000	97.600000
-16	37	-86	-23	-3	-4	-13	-6	-12	-4	20	11	4	-1	-18	3	98.000000	96.300000	97.600000
-16	37	-86	-23	-3	-4	-13	-6	-12	-4	20	11	4	-1	-18	3	98.000000	96.300000	97.600000
41	6	-92	15	0	-14	15	8	-12	-4	20	11	4	-1	-18	3	98.000000	96.300000	97.600000
41	6	-92	15	0	-14	15	8	-4	-13	-92	-36	-15	-9	-10	6	98.000000	96.300000	97.600000
41	6	-92	15	0	-14	15	8	15	9	127	30	5	36	45	-4	98.000000	96.300000	97.600000
41	6	-92	15	0	-14	15	8	-75	-18	20	-7	6	5	-1	6	98.000000	96.300000	97.600000
-16	-7	52	-14	-3	16	30	11	-75	-18	20	-7	6	5	-1	6	98.000000	96.300000	97.600000
-16	-7	52	-14	-3	16	30	11	-17	65	0	37	-6	-29	-5	-18	98.000000	96.300000	97.600000
-16	-7	52	-14	-3	16	30	11	-4	-53	-128	-76	-32	-29	-23	-10	98.000000	96.300000	97.600000
-16	-7	52	-14	-3	16	30	11	-59	1	-50	2	-3	-4	-6	-10	98.000000	96.300000	97.600000
-11	-28	-56	-10	-11	-6	27	5	-59	1	-50	2	-3	-4	-6	-10	98.000000	96.300000	97.600000
-11	-28	-56	-10	-11	-6	27	5	10	-10	36	-12	-2	8	7	4	98.000000	96.300000	97.600000
-11	-28	-56	-10	-11	-6	27	5	52	77	110	87	33	20	2	1	98.000000	96.300000	97.600000
-11	-28	-56	-10	-11	-6	27	5	-35	-62	-71	-49	-19	-15	-17	-4	98.000000	96.300000	97.600000
-11	-28	-56	-10	-11	-6	27	5	-35	-62	-71	-49	-19	-15	-17	-4	98.000000	96.300000	97.600000
-5	6	8	-14	-6	-31	-6	0	-35	-62	-71	-49	-19	-15	-17	-4	98.000000	96.300000	97.600000
-5	6	8	-14	-6	-31	-6	0	26	-21	-59	-35	-5	12	-11	-3	98.000000	96.300000	97.600000
-5	6	8	-14	-6	-31	-6	0	6	-3	-43	-29	-8	-7	-11	-2	98.000000	94.500000	97.600000
-5	6	8	-14	-6	-31	-6	0	9	-11	43	5	5	23	27	10	98.000000	94.500000	97.600000
14	3	-5	14	-6	-2	12	-6	9	-11	43	5	5	23	27	10	98.000000	94.500000	97.600000
14	3	-5	14	-6	-2	12	-6	47	59	127	82	31	30	31	17	98.000000	96.300000	97.600000
14	3	-5	14	-6	-2	12	-6	-54	-23	-23	2	-1	-19	-14	-19	98.000000	96.300000	97.600000
14	3	-5	14	-6	-2	12	-6	33	-14	-118	-41	-15	3	21	3	98.000000	94.500000	97.600000
12	22	10	-31	-1	8	-41	-2	33	-14	-118	-41	-15	3	21	3	98.000000	94.500000	97.600000
12	22	10	-31	-1	8	-41	-2	-1	-37	1	-19	-19	-33	-36	-16	98.000000	94.500000	97.600000
12	22	10	-31	-1	8	-41	-2	-31	-28	-32	-54	-17	-15	-4	-6	98.000000	94.500000	95.300000
12	22	10	-31	-1	8	-41	-2	-31	-28	-32	-54	-17	-15	-4	-6	98.000000	94.500000	95.300000
17	16	-31	-15	1	-7	3	1	-31	-28	-32	-54	-17	-15	-4	-6	98.000000	94.500000	95.300000
17	16	-31	-15	1	-7	3	1	7	-10	-31	-17	5	0	14	-1	98.000000	94.500000	97.600000
17	16	-31	-15	1	-7	3	1	7	-10	-31	-17	5	0	14	-1	98.000000	94.500000	97.600000
17	16	-31	-15	1	-7	3	1	-48	-5	-10	10	-12	-3	2	-11	98.000000	94.500000	95.300000
17	16	-31	-15	1	-7	3	1	-48	-5	-10	10	-12	-3	2	-11	98.000000	94.500000	95.300000
-15	-10	81	28	-1	-9	-4	-6	-48	-5	-10	10	-12	-3	2	-11	98.000000	94.500000	95.300000
-15	-10	81	28	-1	-9	-4	-6	32	3	19	-36	1	-15	-11	3	96.100000	94.500000	95.300000
-15	-10	81	28	-1	-9	-4	-6	1	-15	-64	-19	-7	-23	-25	-5	96.100000	94.500000	95.300000
-15	-10	81	28	-1	-9	-4	-6	31	-31	-68	-38	-1	5	0	-1	96.100000	94.500000	95.300000
0	-50	30	-18	-5	-8	6	-3	31	-31	-68	-38	-1	5	0	-1	96.100000	94.500000	95.300000
0	-50	30	-18	-5	-8	6	-3	31	-31	-68	-38	-1	5	0	-1	96.100000	94.500000	95.300000
0	-50	30	-18	-5	-8	6	-3	-3	6	-77	-40	5	6	10	10	94.200000	92.700000	95.300000
0	-50	30	-18	-5	-8	6	-3	-15	-22	-58	-24	2	-9	-8	-7	94.200000	92.700000	95.300000
0	-50	30	-18	-5	-8	6	-3	-15	-22	-58	-24	2	-9	-8	-7	94.200000	92.700000	95.300000
-2	9	-33	61	10	-2	0	-6	-15	-22	-58	-24	2	-9	-8	-7	94.200000	92.700000	95.300000
-2	9	-33	61	10	-2	0	-6	85	78	69	95	27	24	16	23	94.200000	92.700000	93.000000
-2	9	-33	61	10	-2	0	-6	-47	-32	5	-21	-12	-2	-5	-17	94.200000	92.700000	93.000000
-2	9	-33	61	10	-2	0	-6	-32	65	6	110	21	21	15	2	92.300000	90.900000	93.000000
-2	9	-33	61	10	-2	0	-6	-32	65	6	110	21	21	15	2	92.300000	90.900000	93.000000
-29	-10	90	78	9	11	34	-16	-32	65	6	110	21	21	15	2	92.300000	90.900000	93.000000
-29	-10	90	78	9	11	34	-16	0	12	84	31	7	43	73	29	92.300000	90.900000	90.600000
-29	-10	90	78	9	11	34	-16	0	12	84	31	7	43	73	29	92.300000	90.900000	90.600000
-29	-10	90	78	9	11	34	-16	-19	-33	70	-20	-37	-66	-77	-29	90.300000	90.900000	90.600000
-29	-10	90	78	9	11	34	-16	-11	-6	-65	-11	0	1	-12	-8	90.300000	90.900000	90.600000
-8	20	-53	67	13	1	-18	3	-11	-6	-65	-11	0	1	-12	-8	90.300000	90.900000	90.600000
-8	20	-53	67	13	1	-18	3	-15	-26	-34	-19	-7	-6	-4	-4	88.400000	89.000000	90.600000
-8	20	-53	67	13	1	-18	3	-15	-26	-34	-19	-7	-6	-4	-4	88.400000	89.000000	90.600000
-8	20	-53	67	13	1	-18	3	-15	-26	-34	-19	-7	-6	-4	-4	88.400000	89.000000	90.600000
-8	20	-53	67	13	1	-18	3	-6	18	97	8	3	2	-2	3	88.400000	87.200000	88.300000
1	0	39	15	-9	-4	-6	-2	-6	18	97	8	3	2	-2	3	88.400000	87.200000	88.300000
1	0	39	15	-9	-4	-6	-2	16	-33	-128	-71	-14	-11	-15	-2	88.400000	87.200000	88.300000
1	0	39	15	-9	-4	-6	-2	-8	5	-37	-29	-3	-3	1	-5	88.400000	83.600000	83.700000
1	0	39	15	-9	-4	-6	-2	-8	5	-37	-29	-3	-3	1	-5	88.400000	83.600000	83.700000
3	6	-8	-14	-7	-12	-8	-10	-8	5	-37	-29	-3	-3	1	-5	88.400000	83.600000	83.700000
3	6	-8	-14	-7	-12	-8	-10	33	20	33	38	5	8	18	10	84.600000	74.500000	76.700000
3	6	-8	-14	-7	-12	-8	-10	55	22	-15	2	7	0	19	22	84.600000	74.500000	76.700000
3	6	-8	-14	-7	-12	-8	-10	-33	-17	-69	-1	0	1	8	-16	80.700000	72.700000	74.400000
3	6	-8	-14	-7	-12	-8	-10	-33	-17	-69	-1	0	1	8	-16	80.700000	72.700000	74.400000
-2	5	-70	-1	22	19	7	7	-33	-17	-69	-1	0	1	8	-16	80.700000	72.700000	74.400000
-2	5	-70	-1	22	19	7	7	8	9	-25	14	0	9	7	17	75.000000	72.700000	74.400000
-2	5	-70	-1	22	19	7	7	-9	-29	-19	3	-8	-2	-9	-7	75.000000	72.700000	74.400000
-2	5	-70	-1	22	19	7	7	-10	-1	12	-2	1	0	-4	-4	65.300000	72.700000	74.400000
-8	-4	-3	0	0	-2	1	-1	-10	-1	12	-2	1	0	-4	-4	65.300000	72.700000	74.400000
-8	-4	-3	0	0	-2	1	-1	-10	-1	12	-2	1	0	-4	-4	65.300000	72.700000	74.400000
-8	-4	-3	0	0	-2	1	-1	-12	-7	6	-32	-11	-9	-10	-9	36.500000	65.400000	72.000000
-8	-4	-3	0	0	-2	1	-1	11	25	23	48	12	4	0	5	36.500000	65.400000	72.000000
-8	-4	-3	0	0	-2	1	-1	11	25	23	48	12	4	0	5	36.500000	65.400000	72.000000
-8	-4	84	16	-4	-8	1	-2	11	25	23	48	12	4	0	5	36.500000	65.400000	72.000000
-8	-4	84	16	-4	-8	1	-2	-14	-8	70	23	0	1	-4	-7	13.400000	45.400000	60.400000
-8	-4	84	16	-4	-8	1	-2	-9	-15	-63	-62	-17	-14	-9	-5	9.600000	38.100000	55.800000
-8	-4	84	16	-4	-8	1	-2	14	36	-16	39	23	14	3	8	9.600000	38.100000	55.800000
-8	15	-48	-58	-5	-2	1	4	14	36	-16	39	23	14	3	8	9.600000	38.100000	55.800000
-8	15	-48	-58	-5	-2	1	4	-6	9	4	-5	-1	6	3	-2	9.600000	38.100000	55.800000
-8	15	-48	-58	-5	-2	1	4	-3	-1	63	3	0	1	-5	3	7.600000	30.900000	44.100000
-8	15	-48	-58	-5	-2	1	4	-4	-5	13	3	-11	-5	2	-1	7.600000	30.900000	44.100000
-8	15	-48	-58	-5	-2	1	4	-10	-13	-18	-24	-4	-1	-2	-4	7.600000	23.600000	25.500000
3	26	-106	-60	-10	-2	3	2	-10	-13	-18	-24	-4	-1	-2	-4	7.600000	23.600000	25.500000
3	26	-106	-60	-10	-2	3	2	6	8	-54	12	7	2	0	0	7.600000	23.600000	25.500000
3	26	-106	-60	-10	-2	3	2	-4	-10	-18	0	-3	5	6	-4	7.600000	18.100000	16.200000
3	26	-106	-60	-10	-2	3	2	-13	-28	4	-27	-4	-4	-2	-6	7.600000	18.100000	16.200000
3	26	-106	-60	-10	-2	3	2	-2	-15	3	7	-7	-2	-2	3	5.700000	16.300000	11.600000
-2	3	38	-29	-3	-1	-3	-2	-2	-15	3	7	-7	-2	-2	3	5.700000	16.300000	11.600000
-2	3	38	-29	-3	-1	-3	-2	-10	-3	-6	-29	-13	-15	-6	-10	5.700000	16.300000	11.600000
-2	3	38	-29	-3	-1	-3	-2	-10	-3	-6	-29	-13	-15	-6	-10	5.700000	16.300000	11.600000
-2	3	38	-29	-3	-1	-3	-2	-9	-14	54	6	-8	-1	2	4	5.700000	14.500000	11.600000
-9	-8	11	21	4	-3	-2	-2	-9	-14	54	6	-8	-1	2	4	5.700000	14.500000	11.600000
-9	-8	11	21	4	-3	-2	-2	-5	-8	-18	-5	-9	4	3	-6	5.700000	14.500000	11.600000
-9	-8	11	21	4	-3	-2	-2	-2	6	-69	-12	-10	-8	-7	-3	5.700000	12.700000	9.300000
-9	-8	11	21	4	-3	-2	-2	1	7	31	1	7	0	-7	-3	5.700000	12.700000	9.300000
-9	-8	11	21	4	-3	-2	-2	-3	-15	-64	-52	-3	2	-2	-5	5.700000	12.700000	9.300000
2	-25	-18	-10	-3	-1	3	0	-3	-15	-64	-52	-3	2	-2	-5	5.700000	12.700000	9.300000
2	-25	-18	-10	-3	-1	3	0	-1	-16	-62	4	3	-7	-6	6	5.700000	12.700000	9.300000
2	-25	-18	-10	-3	-1	3	0	8	43	71	18	6	5	-2	-1	5.700000	10.900000	9.300000
2	-25	-18	-10	-3	-1	3	0	-2	-8	-55	0	-2	2	16	-6	5.700000	10.900000	9.300000
5	1	-61	-69	1	-3	-13	1	-2	-8	-55	0	-2	2	16	-6	5.700000	10.900000	9.300000
5	1	-61	-69	1	-3	-13	1	-1	6	33	22	-3	-1	-5	-2	3.800000	10.900000	9.300000
5	1	-61	-69	1	-3	-13	1	1	-8	-31	26	2	7	0	1	3.800000	10.900000	9.300000
5	1	-61	-69	1	-3	-13	1	-15	-21	-38	-35	-7	-6	-3	-16	5.700000	10.900000	6.900000
5	1	-61	-69	1	-3	-13	1	6	13	41	37	10	-1	4	8	5.700000	10.900000	6.900000
-3	5	16	22	4	2	0	0	6	13	41	37	10	-1	4	8	5.700000	10.900000	6.900000
-3	5	16	22	4	2	0	0	1	16	-60	-21	-8	-2	-5	-1	3.800000	10.900000	6.900000
-3	5	16	22	4	2	0	0	4	3	58	7	7	1	-3	1	3.800000	10.900000	6.900000
-3	5	16	22	4	2	0	0	4	3	58	7	7	1	-3	1	3.800000	10.900000	6.900000
-4	-10	26	32	6	1	0	0	4	3	58	7	7	1	-3	1	3.800000	10.900000	6.900000
-4	-10	26	32	6	1	0	0	-1	-8	-17	14	5	1	-2	0	3.800000	10.900000	6.900000
-4	-10	26	32	6	1	0	0	-1	9	-17	-12	-1	2	-1	0	5.700000	10.900000	9.300000
-4	-10	26	32	6	1	0	0	1	-7	-20	-4	3	-4	-5	1	5.700000	10.900000	9.300000
-9	-10	28	84	3	-2	0	-4	1	-7	-20	-4	3	-4	-5	1	5.700000	10.900000	9.300000
-9	-10	28	84	3	-2	0	-4	0	9	7	1	-4	1	0	-2	3.800000	10.900000	9.300000
-9	-10	28	84	3	-2	0	-4	-14	-22	-41	-17	-8	-7	-8	-9	3.800000	10.900000	6.900000
-9	-10	28	84	3	-2	0	-4	-14	-22	-41	-17	-8	-7	-8	-9	3.800000	10.900000	6.900000
-13	2	8	-15	-4	-7	-5	-10	-14	-22	-41	-17	-8	-7	-8	-9	3.800000	10.900000	6.900000
-13	2	8	-15	-4	-7	-5	-10	-25	-17	-5	-3	-3	-7	-6	-16	5.700000	10.900000	9.300000
-13	2	8	-15	-4	-7	-5	-10	-23	17	-57	19	12	17	29	7	5.700000	10.900000	9.300000
-13	2	8	-15	-4	-7	-5	-10	-49	-31	-77	-16	-15	-11	-13	-23	5.700000	10.900000	9.300000
-13	2	8	-15	-4	-7	-5	-10	-36	-35	-9	-33	-16	-21	-24	-24	7.600000	12.700000	9.300000
21	-17	9	-64	-2	21	14	6	-36	-35	-9	-33	-16	-21	-24	-24	7.600000	12.700000	9.300000
21	-17	9	-64	-2	21	14	6	49	-21	-75	-3	7	-16	-5	-8	7.600000	12.700000	9.300000
21	-17	9	-64	-2	21	14	6	49	-21	-75	-3	7	-16	-5	-8	13.400000	20.000000	11.600000
21	-17	9	-64	-2	21	14	6	25	21	80	6	-4	6	11	6	13.400000	20.000000	11.600000
17	-12	19	36	6	2	5	14	25	21	80	6	-4	6	11	6	13.400000	20.000000	11.600000
17	-12	19	36	6	2	5	14	-9	-54	-8	-83	-36	-9	-16	-12	55.700000	49.000000	13.900000
17	-12	19	36	6	2	5	14	-36	-16	-59	39	11	3	-14	-2	55.700000	49.000000	13.900000
17	-12	19	36	6	2	5	14	49	49	113	-8	2	9	16	30	76.900000	81.800000	23.200000
-70	-48	-29	-16	-2	18	-3	-18	-106	-39	-47	-16	-7	-9	-11	-33	76.900000	81.800000	23.200000
-70	-48	-29	-16	-2	18	-3	-18	-108	16	72	-6	2	33	14	10	86.500000	90.900000	51.100000
-70	-48	-29	-16	-2	18	-3	-18	72	-17	-128	-55	-22	-42	-23	3	86.500000	90.900000	51.100000
-70	-48	-29	-16	-2	18	-3	-18	72	-17	-128	-55	-22	-42	-23	3	92.300000	94.500000	83.700000
-70	-48	-29	-16	-2	18	-3	-18	65	23	-44	49	8	-22	-33	-5	92.300000	94.500000	83.700000
-35	-67	45	-87	-5	39	71	19	65	23	-44	49	8	-22	-33	-5	92.300000	94.500000	83.700000
-35	-67	45	-87	-5	39	71	19	10	-15	23	3	0	21	-7	5	94.200000	94.500000	90.600000
-35	-67	45	-87	-5	39	71	19	-28	-7	-56	-30	-1	4	10	-3	94.200000	94.500000	90.600000
24	-1	96	9	-8	-23	-32	-19	-28	-7	-56	-30	-1	4	10	-3	94.200000	94.500000	90.600000
24	-1	96	9	-8	-23	-32	-19	-28	-7	-56	-30	-1	4	10	-3	96.100000	96.300000	93.000000
24	-1	96	9	-8	-23	-32	-19	-30	-19	-24	-18	-10	-34	-29	-12	96.100000	96.300000	95.300000
24	-1	96	9	-8	-23	-32	-19	48	85	44	78	39	72	68	14	96.100000	96.300000	95.300000
3	-2	127	91	6	13	32	-5	48	85	44	78	39	72	68	14	96.100000	96.300000	95.300000
3	-2	127	91	6	13	32	-5	19	-12	-43	-35	6	8	1	5	96.100000	96.300000	95.300000
3	-2	127	91	6	13	32	-5	-34	25	69	5	-10	-17	-16	-20	96.100000	96.300000	95.300000
3	-2	127	91	6	13	32	-5	-36	-34	-23	-57	-17	-6	-15	-17	96.100000	96.300000	95.300000
-26	1	-98	1	0	-7	-8	-9	-36	-34	-23	-57	-17	-6	-15	-17	96.100000	96.300000	95.300000
-26	1	-98	1	0	-7	-8	-9	-1	29	7	65	20	-2	-2	1	96.100000	96.300000	95.300000
-26	1	-98	1	0	-7	-8	-9	-23	-56	-31	-83	-25	-6	17	-14	96.100000	94.500000	93.000000
-26	1	-98	1	0	-7	-8	-9	79	38	-78	95	27	13	10	38	96.100000	94.500000	93.000000
-26	1	-98	1	0	-7	-8	-9	-22	15	45	31	6	8	32	-3	94.200000	94.500000	93.000000
-24	5	24	3	4	-1	-2	0	-22	15	45	31	6	8	32	-3	94.200000	94.500000	93.000000
-24	5	24	3	4	-1	-2	0	-63	-52	-14	-79	-14	-28	-37	-33	94.200000	94.500000	93.000000
-24	5	24	3	4	-1	-2	0	40	34	90	89	18	48	17	13	94.200000	94.500000	93.000000
-24	5	24	3	4	-1	-2	0	8	-10	-54	-31	-2	-9	-9	-2	94.200000	94.500000	93.000000
-24	5	24	3	4	-1	-2	0	-43	10	55	18	-4	-13	-18	-17	94.200000	94.500000	93.000000
-20	-31	6	56	-2	-17	-20	-15	-43	10	55	18	-4	-13	-18	-17	94.200000	94.500000	93.000000
-20	-31	6	56	-2	-17	-20	-15	4	-19	-81	-55	-16	-5	1	3	94.200000	94.500000	93.000000
-20	-31	6	56	-2	-17	-20	-15	22	-10	-14	1	0	10	8	1	94.200000	94.500000	93.000000
-20	-31	6	56	-2	-17	-20	-15	22	-10	-14	1	0	10	8	1	94.200000	94.500000	93.000000
-20	-31	6	56	-2	-17	-20	-15	1	-10	-128	-4	2	-4	-26	2	94.200000	94.500000	93.000000
0	0	0	25	-2	-6	-9	-7	1	-10	-128	-4	2	-4	-26	2	94.200000	94.500000	93.000000
0	0	0	25	-2	-6	-9	-7	38	-12	-42	-16	-15	-20	-1	1	94.200000	94.500000	93.000000
0	0	0	25	-2	-6	-9	-7	-34	-22	-69	-32	-13	-8	-4	-4	94.200000	94.500000	93.000000
0	0	0	25	-2	-6	-9	-7	-34	-22	-69	-32	-13	-8	-4	-4	94.200000	94.500000	93.000000
0	0	0	25	-2	-6	-9	-7	-16	-2	44	28	4	3	-2	-3	94.200000	94.500000	93.000000
1	-5	44	36	3	-7	-6	-5	-16	-2	44	28	4	3	-2	-3	94.200000	94.500000	93.000000
1	-5	44	36	3	-7	-6	-5	8	-11	-15	-12	-9	-3	-14	1	94.200000	94.500000	93.000000
1	-5	44	36	3	-7	-6	-5	14	20	61	29	6	8	12	4	92.300000	94.500000	93.000000
1	-5	44	36	3	-7	-6	-5	13	33	33	53	14	3	4	4	92.300000	94.500000	93.000000
-4	3	20	1	-3	3	1	-1	13	33	33	53	14	3	4	4	92.300000	94.500000	93.000000
-4	3	20	1	-3	3	1	-1	13	33	33	53	14	3	4	4	90.300000	90.900000	90.600000
-4	3	20	1	-3	3	1	-1	-1	11	77	6	-8	-21	-11	-6	90.300000	90.900000	90.600000
-4	3	20	1	-3	3	1	-1	-2	-12	-21	1	4	10	9	1	86.500000	81.800000	86.000000
-4	3	20	1	-3	3	1	-1	-1	-9	22	-14	-6	-1	-3	-3	86.500000	81.800000	86.000000
-1	11	15	6	8	5	3	0	-1	-9	22	-14	-6	-1	-3	-3	86.500000	81.800000	86.000000
-1	11	15	6	8	5	3	0	-1	-9	22	-14	-6	-1	-3	-3	69.200000	43.600000	55.800000
-1	11	15	6	8	5	3	0	-4	-15	3	-19	-4	5	2	1	69.200000	43.600000	55.800000
-1	11	15	6	8	5	3	0	9	22	69	27	9	15	1	2	15.300000	23.600000	20.900000
-1	11	15	6	8	5	3	0	9	22	69	27	9	15	1	2	15.300000	23.600000	20.900000
-17	14	-37	-23	-11	-7	3	1	9	22	69	27	9	15	1	2	15.300000	23.600000	20.900000
-17	14	-37	-23	-11	-7	3	1	-10	-33	-53	-17	-8	-9	-5	-4	15.300000	23.600000	20.900000
-17	14	-37	-23	-11	-7	3	1	9	28	116	44	14	11	-3	5	7.600000	18.100000	16.200000
-17	14	-37	-23	-11	-7	3	1	1	0	-30	-7	-1	-1	-1	0	7.600000	18.100000	16.200000
-17	14	-37	-23	-11	-7	3	1	-15	-21	-96	-43	-8	-11	-15	-5	5.700000	14.500000	13.900000
48	26	42	59	20	7	3	24	-15	-21	-96	-43	-8	-11	-15	-5	5.700000	14.500000	13.900000
48	26	42	59	20	7	3	24	0	9	29	19	4	3	8	2	5.700000	14.500000	13.900000
48	26	42	59	20	7	3	24	4	0	-7	-10	-2	10	11	3	5.700000	14.500000	11.600000
48	26	42	59	20	7	3	24	4	0	-7	-10	-2	10	11	3	5.700000	14.500000	11.600000
-4	-3	48	-4	1	3	-1	-4	4	0	-7	-10	-2	10	11	3	5.700000	14.500000	11.600000
-4	-3	48	-4	1	3	-1	-4	-14	-10	-65	-51	-30	-19	-6	-13	5.700000	14.500000	11.600000
-4	-3	48	-4	1	3	-1	-4	1	-5	-17	3	14	5	-8	0	5.700000	14.500000	11.600000
-4	-3	48	-4	1	3	-1	-4	-4	1	-30	0	-2	1	7	0	5.700000	14.500000	11.600000
-4	-3	48	-4	1	3	-1	-4	-4	1	-30	0	-2	1	7	0	5.700000	14.500000	11.600000
-12	-14	-18	50	-3	-3	0	-5	-4	1	-30	0	-2	1	7	0	5.700000	14.500000	11.600000
-12	-14	-18	50	-3	-3	0	-5	4	0	-27	-8	6	-3	-8	-1	5.700000	14.500000	11.600000
-12	-14	-18	50	-3	-3	0	-5	-5	-21	-54	-21	-11	-7	0	-5	5.700000	14.500000	11.600000
-12	-14	-18	50	-3	-3	0	-5	-2	-7	-55	-24	-19	-6	-4	-2	5.700000	14.500000	11.600000
-7	-8	20	-41	-9	0	0	-5	-2	-7	-55	-24	-19	-6	-4	-2	5.700000	14.500000	11.600000
-7	-8	20	-41	-9	0	0	-5	-2	-7	-55	-24	-19	-6	-4	-2	5.700000	14.500000	11.600000
-7	-8	20	-41	-9	0	0	-5	3	13	27	14	10	-4	1	2	5.700000	14.500000	11.600000
-7	-8	20	-41	-9	0	0	-5	-6	-22	-37	-14	-13	-8	2	-2	5.700000	14.500000	11.600000
-7	-8	20	-41	-9	0	0	-5	-3	-6	1	-13	1	-11	-8	-2	5.700000	14.500000	11.600000
-4	8	38	14	-2	-1	1	-1	-3	-6	1	-13	1	-11	-8	-2	5.700000	14.500000	11.600000
-4	8	38	14	-2	-1	1	-1	0	1	41	6	-8	-4	-8	-4	5.700000	14.500000	11.600000
-4	8	38	14	-2	-1	1	-1	0	1	41	6	-8	-4	-8	-4	5.700000	14.500000	11.600000
-4	8	38	14	-2	-1	1	-1	11	40	28	19	6	-5	2	2	5.700000	14.500000	11.600000
-4	8	38	14	-2	-1	1	-1	-5	-17	-8	1	1	2	0	-3	5.700000	14.500000	11.600000
0	8	41	20	12	3	-6	-3	-5	-17	-8	1	1	2	0	-3	5.700000	14.500000	11.600000
0	8	41	20	12	3	-6	-3	10	38	75	80	17	-2	-2	4	5.700000	14.500000	11.600000
0	8	41	20	12	3	-6	-3	3	1	-23	13	0	5	4	0	5.700000	14.500000	11.600000
0	8	41	20	12	3	-6	-3	-5	-19	-47	3	-10	-19	-16	-1	5.700000	14.500000	11.600000
0	8	41	20	12	3	-6	-3	1	4	-57	-33	-18	-4	5	-2	5.700000	14.500000	11.600000
-1	6	7	-12	0	2	2	0	1	4	-57	-33	-18	-4	5	-2	5.700000	14.500000	11.600000
-1	6	7	-12	0	2	2	0	1	6	34	8	0	10	6	-3	5.700000	14.500000	11.600000
-1	6	7	-12	0	2	2	0	-9	-29	-59	-32	-9	5	11	-2	5.700000	14.500000	11.600000
-1	6	7	-12	0	2	2	0	-9	-29	-59	-32	-9	5	11	-2	5.700000	14.500000	11.600000
4	-3	-1	15	6	0	2	-1	-9	-29	-59	-32	-9	5	11	-2	5.700000	14.500000	11.600000
4	-3	-1	15	6	0	2	-1	-1	6	0	5	-7	3	2	-3	5.700000	14.500000	11.600000
4	-3	-1	15	6	0	2	-1	5	15	-2	19	21	15	4	5	5.700000	12.700000	11.600000
4	-3	-1	15	6	0	2	-1	-1	5	53	-8	8	-8	-7	-2	5.700000	12.700000	11.600000
4	-3	-1	15	6	0	2	-1	2	-3	-75	-13	-2	2	-12	-1	5.700000	14.500000	11.600000
-8	-13	-3	-43	-11	-7	-7	-5	2	-3	-75	-13	-2	2	-12	-1	5.700000	14.500000	11.600000
-8	-13	-3	-43	-11	-7	-7	-5	1	0	-31	13	2	-13	-12	-4	5.700000	14.500000	11.600000
-8	-13	-3	-43	-11	-7	-7	-5	-3	0	52	-10	-7	0	-2	-3	5.700000	14.500000	11.600000
-8	-13	-3	-43	-11	-7	-7	-5	3	4	-15	3	3	-10	3	-2	5.700000	12.700000	11.600000
0	-16	-8	-15	5	3	-4	-2	3	4	-15	3	3	-10	3	-2	5.700000	12.700000	11.600000
0	-16	-8	-15	5	3	-4	-2	3	4	-15	3	3	-10	3	-2	5.700000	12.700000	11.600000
0	-16	-8	-15	5	3	-4	-2	-2	3	7	15	2	1	0	1	5.700000	12.700000	11.600000
0	-16	-8	-15	5	3	-4	-2	6	34	13	5	3	9	3	-2	5.700000	12.700000	9.300000
2	8	-42	-16	-5	-4	-3	1	6	34	13	5	3	9	3	-2	5.700000	12.700000	9.300000
2	8	-42	-16	-5	-4	-3	1	1	-3	26	20	2	7	1	0	5.700000	12.700000	9.300000
2	8	-42	-16	-5	-4	-3	1	-1	-14	-53	-12	-5	0	-1	2	5.700000	12.700000	11.600000
2	8	-42	-16	-5	-4	-3	1	-2	-3	-20	9	-5	-15	-5	-4	5.700000	12.700000	11.600000
0	-3	-9	32	9	7	7	0	-2	-3	-20	9	-5	-15	-5	-4	5.700000	12.700000	11.600000
0	-3	-9	32	9	7	7	0	0	2	16	-7	-11	-19	5	3	5.700000	12.700000	9.300000
0	-3	-9	32	9	7	7	0	0	2	16	-7	-11	-19	5	3	5.700000	12.700000	9.300000
0	-3	-9	32	9	7	7	0	0	5	-30	13	-2	14	4	-1	5.700000	12.700000	11.600000
-1	-4	8	12	0	-2	-4	-2	0	5	-30	13	-2	14	4	-1	5.700000	12.700000	11.600000
-1	-4	8	12	0	-2	-4	-2	-8	-8	18	-10	-14	-14	-6	-3	5.700000	12.700000	11.600000
-1	-4	8	12	0	-2	-4	-2	3	21	31	-9	12	8	-12	-5	5.700000	12.700000	9.300000
-1	-4	8	12	0	-2	-4	-2	3	21	31	-9	12	8	-12	-5	5.700000	12.700000	9.300000
-1	-4	8	12	0	-2	-4	-2	-1	-4	-15	-3	-7	1	8	1	5.700000	12.700000	9.300000
0	8	-5	-13	-3	-7	4	1	-1	-4	-15	-3	-7	1	8	1	5.700000	12.700000	9.300000
0	8	-5	-13	-3	-7	4	1	0	5	55	12	13	12	6	0	5.700000	12.700000	9.300000
0	8	-5	-13	-3	-7	4	1	-1	-3	-17	3	0	16	8	-2	7.600000	12.700000	11.600000
0	8	-5	-13	-3	-7	4	1	-2	-6	-40	-10	-9	-9	1	-3	7.600000	12.700000	11.600000
0	8	-5	-13	-3	-7	4	1	-3	-7	-6	8	-6	7	6	-2	5.700000	12.700000	9.300000
0	-20	5	-2	2	0	1	0	-3	-7	-6	8	-6	7	6	-2	5.700000	12.700000	9.300000
0	-20	5	-2	2	0	1	0	-7	-8	-29	-21	-5	-4	-7	-9	5.700000	12.700000	9.300000
0	-20	5	-2	2	0	1	0	1	8	25	39	9	19	11	3	5.700000	12.700000	9.300000
0	-20	5	-2	2	0	1	0	-1	-9	-40	-14	7	6	2	4	5.700000	12.700000	9.300000
0	-20	5	-2	2	0	1	0	-1	-9	-40	-14	7	6	2	4	5.700000	12.700000	9.300000
-3	11	21	16	3	-1	-2	-1	-1	-9	-40	-14	7	6	2	4	5.700000	12.700000	9.300000
-3	11	21	16	3	-1	-2	-1	1	-2	-20	-6	-1	-6	-2	0	7.600000	12.700000	11.600000
-3	11	21	16	3	-1	-2	-1	-6	-16	13	-2	3	-7	3	-1	7.600000	12.700000	11.600000
-3	11	21	16	3	-1	-2	-1	-5	-4	-19	0	-1	8	3	-5	7.600000	12.700000	11.600000
-3	11	21	16	3	-1	-2	-1	2	2	-34	6	5	9	-1	3	7.600000	12.700000	11.600000
1	12	-26	-18	-3	0	2	1	2	2	-34	6	5	9	-1	3	7.600000	12.700000	11.600000
1	12	-26	-18	-3	0	2	1	-6	10	15	-6	-7	-9	-12	-9	7.600000	12.700000	11.600000
1	12	-26	-18	-3	0	2	1	-6	10	15	-6	-7	-9	-12	-9	7.600000	12.700000	9.300000
1	12	-26	-18	-3	0	2	1	0	6	-29	-1	6	13	6	-2	7.600000	12.700000	9.300000
-1	-9	9	10	-3	-4	-2	0	0	6	-29	-1	6	13	6	-2	7.600000	12.700000	9.300000
-1	-9	9	10	-3	-4	-2	0	0	-10	-22	-4	1	-6	-4	1	7.600000	12.700000	9.300000
-1	-9	9	10	-3	-4	-2	0	0	8	7	8	-22	-24	-16	-4	7.600000	12.700000	9.300000
-1	-9	9	10	-3	-4	-2	0	0	5	12	0	3	-15	-1	1	7.600000	12.700000	9.300000
-1	-9	9	10	-3	-4	-2	0	-5	-5	47	-4	3	0	0	-3	7.600000	12.700000	9.300000
0	9	7	53	-2	4	3	1	-5	-5	47	-4	3	0	0	-3	7.600000	12.700000	9.300000
0	9	7	53	-2	4	3	1	2	-1	91	12	7	-4	1	1	7.600000	12.700000	11.600000
0	9	7	53	-2	4	3	1	2	-1	91	12	7	-4	1	1	7.600000	12.700000	11.600000
0	9	7	53	-2	4	3	1	-7	-11	-10	-12	-3	-5	-2	-3	7.600000	12.700000	9.300000
0	9	7	53	-2	4	3	1	1	7	15	16	7	8	-2	-4	7.600000	12.700000	9.300000
-2	-2	12	-12	-10	-8	-3	-3	1	7	15	16	7	8	-2	-4	7.600000	12.700000	9.300000
-2	-2	12	-12	-10	-8	-3	-3	1	-8	-38	-19	0	-6	-6	1	7.600000	12.700000	11.600000
-2	-2	12	-12	-10	-8	-3	-3	1	-8	-38	-19	0	-6	-6	1	7.600000	12.700000	11.600000
-2	-2	12	-12	-10	-8	-3	-3	0	16	57	-14	-12	-26	-10	-3	7.600000	12.700000	11.600000
-2	-2	12	-12	-10	-8	-3	-3	0	16	57	-14	-12	-26	-10	-3	7.600000	12.700000	9.300000
-3	7	-27	-36	-6	-5	-2	-2	0	16	57	-14	-12	-26	-10	-3	7.600000	12.700000	9.300000
-3	7	-27	-36	-6	-5	-2	-2	-8	-15	-30	-18	-17	-20	-2	-3	7.600000	12.700000	9.300000
-3	7	-27	-36	-6	-5	-2	-2	0	-1	-41	1	6	16	10	0	7.600000	12.700000	9.300000
-3	7	-27	-36	-6	-5	-2	-2	0	-1	-41	1	6	16	10	0	7.600000	12.700000	9.300000
0	1	-63	-18	4	5	4	0	0	-1	-41	1	6	16	10	0	7.600000	12.700000	9.300000
0	1	-63	-18	4	5	4	0	7	27	46	14	9	6	0	6	7.600000	12.700000	11.600000
0	1	-63	-18	4	5	4	0	7	4	8	12	6	6	15	8	7.600000	12.700000	11.600000
0	1	-63	-18	4	5	4	0	-6	-21	-59	-23	-23	-3	-6	-5	7.600000	12.700000	11.600000
0	1	-63	-18	4	5	4	0	4	-11	-34	6	2	-10	-7	-2	7.600000	12.700000	11.600000
-1	-4	-10	-22	-4	1	-2	-1	4	-11	-34	6	2	-10	-7	-2	7.600000	12.700000	11.600000
-1	-4	-10	-22	-4	1	-2	-1	-2	-3	1	1	2	5	-2	-1	7.600000	12.700000	11.600000
-1	-4	-10	-22	-4	1	-2	-1	-2	-3	1	1	2	5	-2	-1	7.600000	12.700000	9.300000
-1	-4	-10	-22	-4	1	-2	-1	-3	-10	11	5	5	-2	-9	-3	7.600000	12.700000	9.300000
-1	-4	-10	-22	-4	1	-2	-1	-3	-8	-20	-18	2	9	-4	-2	7.600000	12.700000	9.300000
0	20	-6	-6	-2	-8	-13	-5	-3	-8	-20	-18	2	9	-4	-2	7.600000	12.700000	9.300000
0	20	-6	-6	-2	-8	-13	-5	-2	-5	-2	-8	-12	3	-1	-2	7.600000	12.700000	9.300000
0	20	-6	-6	-2	-8	-13	-5	-2	-5	-4	-8	5	9	8	-1	7.600000	12.700000	9.300000
0	20	-6	-6	-2	-8	-13	-5	-2	-5	-4	-8	5	9	8	-1	7.600000	12.700000	9.300000
0	20	-6	-6	-2	-8	-13	-5	3	27	55	4	-11	-2	0	1	7.600000	12.700000	9.300000
-3	-13	11	0	1	-1	-1	-2	3	27	55	4	-11	-2	0	1	7.600000	12.700000	9.300000
-3	-13	11	0	1	-1	-1	-2	-7	-10	-14	2	5	8	3	-5	7.600000	12.700000	9.300000
-3	-13	11	0	1	-1	-1	-2	-3	-2	-21	-11	-8	-9	1	-2	7.600000	12.700000	9.300000
-3	-13	11	0	1	-1	-1	-2	-3	-2	-21	-11	-8	-9	1	-2	7.600000	12.700000	11.600000
-3	-13	11	0	1	-1	-1	-2	1	-11	2	13	11	3	0	4	7.600000	12.700000	11.600000
-3	-5	-50	-56	-9	-1	-1	-1	1	-11	2	13	11	3	0	4	7.600000	12.700000	11.600000
-3	-5	-50	-56	-9	-1	-1	-1	-6	-12	-7	-11	-1	-18	-9	-2	7.600000	12.700000	11.600000
-3	-5	-50	-56	-9	-1	-1	-1	-6	-12	-7	-11	-1	-18	-9	-2	7.600000	12.700000	11.600000
-3	-5	-50	-56	-9	-1	-1	-1	-2	2	20	-8	-10	-7	-8	-6	7.600000	12.700000	9.300000
0	-5	-9	18	6	1	0	0	-2	2	20	-8	-10	-7	-8	-6	7.600000	12.700000	9.300000
0	-5	-9	18	6	1	0	0	-3	-6	9	-3	16	22	10	0	7.600000	12.700000	9.300000
0	-5	-9	18	6	1	0	0	1	-6	-12	19	-1	-13	-5	-2	7.600000	12.700000	9.300000
0	-5	-9	18	6	1	0	0	4	7	2	4	8	0	13	9	7.600000	12.700000	9.300000
0	-5	-9	18	6	1	0	0	-2	7	32	-3	-11	-4	-2	-3	7.600000	12.700000	11.600000
-2	14	14	13	7	-2	-4	-2	-2	7	32	-3	-11	-4	-2	-3	7.600000	12.700000	11.600000
-2	14	14	13	7	-2	-4	-2	9	11	17	13	0	-10	-5	0	7.600000	12.700000	11.600000
-2	14	14	13	7	-2	-4	-2	9	11	17	13	0	-10	-5	0	7.600000	12.700000	11.600000
-2	14	14	13	7	-2	-4	-2	-3	-15	-45	-6	6	16	1	-2	7.600000	12.700000	11.600000
2	15	-1	-10	11	-1	3	3	-3	-15	-45	-6	6	16	1	-2	7.600000	12.700000	11.600000
2	15	-1	-10	11	-1	3	3	-2	-9	-14	9	-7	1	-5	-3	7.600000	12.700000	9.300000
2	15	-1	-10	11	-1	3	3	-8	-5	-35	-8	-11	-12	-5	-5	7.600000	12.700000	9.300000
2	15	-1	-10	11	-1	3	3	-4	-7	10	11	-1	10	5	0	7.600000	12.700000	9.300000
-1	4	-17	-21	-2	-1	-1	0	-4	-7	10	11	-1	10	5	0	7.600000	12.700000	9.300000
-1	4	-17	-21	-2	-1	-1	0	-4	-7	10	11	-1	10	5	0	7.600000	12.700000	9.300000
-1	4	-17	-21	-2	-1	-1	0	-4	-2	1	-3	-1	0	3	-2	7.600000	12.700000	11.600000
-1	4	-17	-21	-2	-1	-1	0	0	2	2	-9	0	-14	-11	2	7.600000	12.700000	11.600000
-1	4	-17	-21	-2	-1	-1	0	-8	0	3	-18	-15	-13	-5	-6	7.600000	12.700000	11.600000
-3	-3	15	-25	-13	-3	0	-2	5	33	18	26	2	7	3	3	7.600000	12.700000	9.300000
-3	-3	15	-25	-13	-3	0	-2	-8	-16	-64	-27	-8	-10	-6	-6	7.600000	12.700000	9.300000
-3	-3	15	-25	-13	-3	0	-2	-8	-16	-64	-27	-8	-10	-6	-6	7.600000	12.700000	9.300000
-3	-3	15	-25	-13	-3	0	-2	3	5	10	14	11	4	0	1	7.600000	12.700000	9.300000
0	7	-18	1	-5	-2	-1	-2	3	5	10	14	11	4	0	1	7.600000	12.700000	9.300000
0	7	-18	1	-5	-2	-1	-2	5	7	23	-8	-2	-11	-2	5	7.600000	12.700000	11.600000
0	7	-18	1	-5	-2	-1	-2	6	10	-4	15	-6	-10	1	0	7.600000	12.700000	11.600000
0	7	-18	1	-5	-2	-1	-2	6	10	-4	15	-6	-10	1	0	7.600000	12.700000	9.300000
-1	-9	-34	-19	3	3	-3	-2	6	10	-4	15	-6	-10	1	0	7.600000	12.700000	9.300000
-1	-9	-34	-19	3	3	-3	-2	-5	-18	-51	0	3	5	-5	-5	7.600000	12.700000	9.300000
-1	-9	-34	-19	3	3	-3	-2	-5	-12	4	-26	2	-3	-4	-1	7.600000	12.700000	9.300000
-1	-9	-34	-19	3	3	-3	-2	0	1	5	3	7	13	0	-2	7.600000	12.700000	11.600000
-1	-5	15	18	-8	0	-1	1	0	1	5	3	7	13	0	-2	7.600000	12.700000	11.600000
-1	-5	15	18	-8	0	-1	1	-2	-11	13	-19	10	11	3	-4	7.600000	12.700000	11.600000
-1	-5	15	18	-8	0	-1	1	0	-7	-13	2	-2	-11	-9	0	7.600000	12.700000	11.600000
-1	-5	15	18	-8	0	-1	1	-4	-6	-9	-5	-4	1	1	-2	7.600000	12.700000	11.600000
-1	-5	15	18	-8	0	-1	1	-2	-2	-10	-5	3	-8	-4	0	7.600000	12.700000	9.300000
-2	10	-4	-10	-14	-7	-4	-1	-2	-2	-10	-5	3	-8	-4	0	7.600000	12.700000	9.300000
-2	10	-4	-10	-14	-7	-4	-1	-2	-2	-10	-5	3	-8	-4	0	7.600000	12.700000	9.300000
-2	10	-4	-10	-14	-7	-4	-1	-6	-6	-29	-7	-11	-17	-1	-2	7.600000	12.700000	9.300000
-2	10	-4	-10	-14	-7	-4	-1	9	28	42	8	2	1	-1	3	7.600000	12.700000	9.300000
-1	5	6	6	-10	-3	1	-1	9	28	42	8	2	1	-1	3	7.600000	12.700000	9.300000
-1	5	6	6	-10	-3	1	-1	-2	-10	-29	-8	1	-6	-2	0	7.600000	12.700000	11.600000
-1	5	6	6	-10	-3	1	-1	1	2	22	-11	-12	-24	-4	0	7.600000	12.700000	11.600000
-1	5	6	6	-10	-3	1	-1	-7	-14	-20	-16	-9	-9	-3	-4	7.600000	12.700000	11.600000
-2	7	66	10	5	0	2	-2	-7	-14	-20	-16	-9	-9	-3	-4	7.600000	12.700000	11.600000
-2	7	66	10	5	0	2	-2	0	-2	-19	11	0	11	1	3	7.600000	12.700000	11.600000
-2	7	66	10	5	0	2	-2	0	-2	-19	11	0	11	1	3	7.600000	12.700000	11.600000
-2	7	66	10	5	0	2	-2	-2	4	22	9	-9	-10	-2	-2	7.600000	12.700000	11.600000
0	3	-35	42	10	2	-1	0	-2	4	22	9	-9	-10	-2	-2	7.600000	12.700000	11.600000
0	3	-35	42	10	2	-1	0	-3	-14	-27	5	-21	-37	-14	0	7.600000	12.700000	11.600000
0	3	-35	42	10	2	-1	0	-9	-14	-11	-18	3	-2	-3	-3	7.600000	12.700000	11.600000
0	3	-35	42	10	2	-1	0	-9	-14	-11	-18	3	-2	-3	-3	7.600000	12.700000	11.600000
0	3	-35	42	10	2	-1	0	5	5	-26	-1	4	-1	0	-1	7.600000	12.700000	11.600000
3	-5	-15	-15	-1	-4	-2	-1	5	5	-26	-1	4	-1	0	-1	7.600000	12.700000	11.600000
3	-5	-15	-15	-1	-4	-2	-1	-4	-11	-10	-16	-7	-1	-3	-2	7.600000	14.500000	9.300000
3	-5	-15	-15	-1	-4	-2	-1	-2	3	2	26	18	17	0	-6	7.600000	14.500000	9.300000
3	-5	-15	-15	-1	-4	-2	-1	4	9	10	2	8	9	4	1	7.600000	14.500000	9.300000
3	-5	-15	-15	-1	-4	-2	-1	4	9	10	2	8	9	4	1	7.600000	14.500000	9.300000
0	-14	-7	-2	-7	-2	1	-2	4	9	10	2	8	9	4	1	7.600000	14.500000	9.300000
0	-14	-7	-2	-7	-2	1	-2	-1	-3	-63	-7	1	23	10	-1	7.600000	14.500000	9.300000
0	-14	-7	-2	-7	-2	1	-2	-6	-14	-39	-27	-16	-2	-3	-3	7.600000	12.700000	11.600000
