18.0144	24.413	14.1786#17.3	10.9	6.9
18.0144	24.413	14.1786#17.3	10.9	6.9
17.2266	28.3127	17.6896#28.8	10.9	6.9
17.3617	23.5557	13.4746#57.6	10.9	6.9
12.4036	22.7668	11.5039#57.6	10.9	6.9
13.9645	24.1737	11.4615#57.6	10.9	6.9
13.9645	24.1737	11.4615#57.6	10.9	6.9
14.9305	30.4185	18.4772#71.1	9.0	6.9
13.8863	28.9494	18.1927#71.1	9.0	6.9
15.2704	34.803	20.3798#80.7	10.9	6.9
15.991	32.3546	18.0771#80.7	10.9	6.9
12.7478	19.8931	12.6084#88.4	10.9	6.9
12.7478	19.8931	12.6084#88.4	10.9	6.9
9.22564	13.8006	8.88013#88.4	10.9	6.9
6.32785	14.927	6.82839#94.2	10.9	6.9
10.5882	13.4961	7.90282#94.2	10.9	6.9
14.8361	29.8601	19.8662#94.2	9.0	6.9
14.8361	29.8601	19.8662#94.2	9.0	6.9
16.1226	32.1182	21.7725#94.2	9.0	6.9
16.065	25.5363	16.1199#94.2	9.0	6.9
17.7998	23.1382	13.4113#96.1	9.0	6.9
17.7998	23.1382	13.4113#96.1	9.0	6.9
22.0841	28.9038	18.5142#96.1	9.0	6.9
15.3085	19.3167	11.9523#96.1	9.0	6.9
9.59844	19.7738	12.1248#96.1	9.0	6.9
11.8143	15.0853	8.94043#96.1	10.9	6.9
10.7135	19.915	9.2123#96.1	10.9	6.9
11.4939	23.4182	10.1487#96.1	10.9	6.9
12.6081	26.8713	16.3925#98.0	9.0	6.9
12.6081	26.8713	16.3925#98.0	9.0	6.9
11.6834	20.7625	10.8234#98.0	9.0	6.9
14.5875	22.6629	13.6596#98.0	9.0	6.9
12.1796	21.1139	11.3205#98.0	9.0	6.9
13.3585	17.1731	10.3741#98.0	9.0	6.9
13.8969	27.3619	18.456#98.0	9.0	6.9
13.4482	25.405	15.7435#98.0	9.0	6.9
12.156	19.5781	8.94334#98.0	9.0	6.9
11.6409	22.7252	13.0663#98.0	9.0	6.9
11.6409	22.7252	13.0663#98.0	9.0	6.9
16.6242	24.973	12.3767#98.0	9.0	6.9
16.6242	24.973	12.3767#98.0	9.0	6.9
14.3969	19.0671	10.2348#98.0	9.0	6.9
12.0831	17.2017	9.35915#98.0	9.0	6.9
9.28365	13.8062	8.10247#98.0	9.0	6.9
9.28365	13.8062	8.10247#98.0	9.0	6.9
12.4207	17.0985	10.4005#98.0	9.0	6.9
13.4499	25.5336	14.2458#98.0	9.0	6.9
8.44636	18.3912	9.74657#98.0	10.9	6.9
16.8084	20.9563	12.8082#98.0	10.9	6.9
16.8084	20.9563	12.8082#98.0	10.9	6.9
17.8427	22.9715	13.7493#98.0	10.9	6.9
9.63598	16.1497	9.57177#98.0	10.9	6.9
7.37587	16.8406	7.84923#98.0	10.9	6.9
7.37587	16.8406	7.84923#98.0	10.9	6.9
6.75077	16.6199	7.26285#98.0	10.9	6.9
12.0532	19.3246	12.0641#98.0	10.9	6.9
15.6987	20.8401	12.46#98.0	10.9	6.9
9.07638	14.3794	7.83137#96.1	9.0	6.9
10.4468	18.497	10.3815#96.1	9.0	6.9
7.81974	19.1658	9.64747#96.1	10.9	6.9
11.8672	23.4011	14.9729#96.1	10.9	6.9
11.8672	23.4011	14.9729#92.3	10.9	6.9
16.2947	22.3975	12.9807#92.3	10.9	6.9
16.5571	21.2754	12.0088#92.3	10.9	6.9
9.62946	17.7549	8.40547#80.7	9.0	6.9
9.62946	17.7549	8.40547#80.7	9.0	6.9
9.94307	12.2853	6.64929#80.7	9.0	6.9
11.483	13.8261	7.92946#80.7	9.0	6.9
12.1417	15.4716	9.01961#40.3	9.0	6.9
8.25537	12.5763	7.65051#40.3	9.0	6.9
8.25537	12.5763	7.65051#13.4	10.9	6.9
7.97891	12.6442	7.58028#13.4	10.9	6.9
16.7243	22.5267	12.209#13.4	10.9	6.9
11.2329	15.074	8.46101#9.6	9.0	6.9
19.2967	26.8296	16.1409#7.6	9.0	6.9
19.2967	26.8296	16.1409#7.6	9.0	6.9
17.9887	25.4031	15.0344#7.6	9.0	6.9
12.9034	16.2899	9.14585#7.6	9.0	6.9
19.36	36.8177	20.9011#7.6	10.9	6.9
6.73648	11.7168	5.76276#7.6	10.9	6.9
8.17283	13.7054	7.18559#7.6	10.9	6.9
11.4513	23.2268	13.9629#5.7	10.9	6.9
8.82214	12.9298	6.48391#5.7	10.9	6.9
11.6779	22.0959	13.1245#5.7	10.9	6.9
10.9133	21.0967	13.6633#5.7	10.9	6.9
10.9133	21.0967	13.6633#5.7	9.0	6.9
14.6221	29.2147	18.3616#5.7	9.0	6.9
11.0304	15.6203	9.2008#5.7	9.0	6.9
10.9974	20.4256	12.406#5.7	9.0	6.9
11.114	19.261	11.496#5.7	9.0	6.9
12.2072	23.2992	15.4694#5.7	9.0	6.9
6.93988	10.4202	5.58037#5.7	9.0	6.9
6.93988	10.4202	5.58037#3.8	9.0	6.9
7.65008	11.5182	6.27249#3.8	9.0	6.9
19.0811	29.102	17.4679#3.8	9.0	6.9
9.97143	17.139	9.39463#5.7	10.9	6.9
9.83663	19.7198	11.5918#5.7	10.9	6.9
12.3378	22.2284	12.8595#5.7	10.9	6.9
12.3378	22.2284	12.8595#3.8	9.0	6.9
17.0401	31.6677	20.6252#3.8	9.0	6.9
12.7591	18.022	9.49453#3.8	9.0	6.9
12.5333	17.9137	9.93931#3.8	9.0	6.9
11.5931	16.3475	8.27842#3.8	9.0	6.9
27.1426	35.9441	22.2092#3.8	9.0	6.9
16.7617	25.2379	13.9015#3.8	9.0	6.9
10.9556	14.6884	7.73696#3.8	9.0	6.9
6.94154	10.1841	5.46963#3.8	9.0	6.9
8.73863	14.5472	7.67404#3.8	9.0	6.9
11.0523	26.1369	12.7148#3.8	9.0	6.9
10.809	13.8473	7.6707#3.8	9.0	6.9
13.3534	17.1033	9.22765#3.8	9.0	6.9
16.1806	35.202	22.2576#3.8	9.0	6.9
10.7841	16.272	8.8277#3.8	9.0	6.9
10.7841	16.272	8.8277#3.8	9.0	6.9
16.6846	26.0308	13.3244#3.8	9.0	6.9
12.9297	21.795	11.3331#3.8	9.0	6.9
13.71	28.5657	17.742#3.8	9.0	6.9
20.4382	29.853	17.783#3.8	9.0	6.9
11.0568	14.1713	7.37273#3.8	9.0	6.9
10.9746	13.805	7.28355#3.8	9.0	6.9
12.2588	18.5016	9.22091#3.8	9.0	6.9
17.3233	39.7303	23.681#3.8	9.0	6.9
7.62435	16.6467	7.67825#3.8	9.0	6.9
7.62435	16.6467	7.67825#3.8	9.0	6.9
13.4909	23.1185	11.5565#3.8	9.0	6.9
8.99162	18.0156	10.0097#3.8	9.0	6.9
8.42562	14.2829	6.18921#3.8	9.0	6.9
10.5171	13.8413	7.20369#3.8	9.0	6.9
16.1024	21.6841	12.957#3.8	9.0	6.9
21.4514	31.7889	19.605#3.8	9.0	6.9
8.34982	13.4868	7.73096#3.8	9.0	6.9
10.1216	17.769	10.5161#3.8	9.0	6.9
10.1216	17.769	10.5161#3.8	9.0	4.6
6.19655	11.6097	6.4309#3.8	9.0	4.6
12.927	19.8707	10.9893#3.8	9.0	4.6
9.42953	17.5568	11.2865#3.8	9.0	4.6
14.9746	23.7812	13.8717#3.8	9.0	4.6
12.546	21.0033	11.9912#3.8	9.0	6.9
7.39899	11.3782	6.93483#3.8	9.0	6.9
8.77897	16.3072	9.90006#3.8	9.0	6.9
9.85029	15.7027	9.57976#3.8	9.0	6.9
12.0037	21.7257	11.7677#3.8	9.0	6.9
8.72318	15.0087	6.22645#3.8	9.0	6.9
7.98461	18.5406	7.99942#3.8	9.0	6.9
8.73154	17.0631	6.67357#5.7	9.0	6.9
5.9344	9.9157	4.08119#5.7	9.0	6.9
7.66207	9.70991	4.9872#5.7	9.0	6.9
9.59927	13.9908	7.27257#5.7	9.0	6.9
9.83189	16.79	9.19234#5.7	9.0	6.9
9.83189	16.79	9.19234#3.8	9.0	6.9
12.8066	18.6605	10.5149#3.8	9.0	6.9
10.1206	15.743	9.2804#3.8	9.0	6.9
8.56731	14.0134	9.11666#3.8	9.0	6.9
9.81487	13.7616	7.57732#5.7	9.0	4.6
12.2176	21.0476	12.6632#5.7	9.0	4.6
11.6786	22.4849	11.7105#5.7	9.0	4.6
22.23	32.8751	18.2844#3.8	9.0	4.6
8.16953	11.762	6.49437#3.8	9.0	6.9
11.7895	25.6779	13.8746#3.8	9.0	6.9
19.7355	28.5061	15.3363#5.7	9.0	6.9
18.6304	25.2276	14.406#5.7	9.0	6.9
12.8617	27.3753	16.3329#5.7	9.0	6.9
12.2459	22.3349	15.3402#5.7	9.0	6.9
11.3336	20.1332	13.8134#5.7	9.0	6.9
6.52368	14.4645	5.54791#5.7	9.0	6.9
12.6829	15.7546	8.72328#5.7	9.0	6.9
9.8772	12.2605	6.38061#5.7	9.0	6.9
10.2084	15.8544	8.83721#5.7	9.0	6.9
10.1437	17.2926	10.4205#5.7	9.0	6.9
12.7131	22.4753	13.3725#5.7	9.0	6.9
6.74758	12.6901	7.18707#5.7	9.0	6.9
9.76618	18.549	10.7033#5.7	9.0	6.9
9.15736	17.1286	9.66819#5.7	9.0	6.9
11.1538	17.2169	9.40645#5.7	9.0	6.9
6.00829	9.78115	5.74645#5.7	9.0	6.9
7.44906	15.628	6.75741#7.6	9.0	6.9
8.25131	12.7847	6.43486#7.6	9.0	6.9
9.18698	14.7467	6.67306#7.6	9.0	6.9
11.4168	18.1931	11.5895#5.7	9.0	6.9
12.2753	22.1459	15.3015#5.7	9.0	6.9
7.36622	14.8675	5.48178#5.7	9.0	6.9
7.36622	14.8675	5.48178#5.7	9.0	6.9
15.4967	23.6162	12.4628#5.7	9.0	6.9
19.5307	30.6139	19.3057#5.7	9.0	6.9
12.4893	20.3382	12.3297#7.6	9.0	6.9
18.19	26.0516	15.9831#7.6	9.0	6.9
18.19	26.0516	15.9831#5.7	9.0	6.9
8.00381	10.9561	5.49487#5.7	9.0	6.9
13.6683	19.1559	10.5674#5.7	9.0	6.9
13.6683	19.1559	10.5674#5.7	9.0	6.9
15.8161	23.58	15.1004#5.7	9.0	6.9
12.191	17.3018	8.78707#5.7	9.0	6.9
10.284	12.4549	6.8514#5.7	9.0	6.9
7.46751	14.7591	7.18598#5.7	9.0	4.6
7.46751	14.7591	7.18598#5.7	9.0	4.6
10.9169	24.7	13.0986#7.6	9.0	6.9
11.8693	16.3088	10.3618#7.6	9.0	6.9
17.1465	24.6224	15.1214#7.6	9.0	6.9
7.26871	13.4293	5.33669#7.6	9.0	6.9
17.0349	28.7091	19.7009#7.6	9.0	6.9
17.0349	28.7091	19.7009#7.6	9.0	6.9
14.3091	21.4964	12.3812#7.6	9.0	6.9
8.90731	14.7301	7.51552#7.6	9.0	6.9
8.82731	19.9051	10.1179#7.6	9.0	6.9
17.8027	31.893	14.8588#9.6	9.0	6.9
17.8027	31.893	14.8588#9.6	9.0	6.9
10.8166	18.1418	8.26472#9.6	9.0	6.9
10.1458	19.9058	12.7182#11.5	10.9	6.9
16.6345	30.0054	17.1299#11.5	10.9	6.9
9.01294	18.2722	11.1943#11.5	10.9	6.9
8.53637	16.45	9.50964#11.5	10.9	6.9
13.3372	16.6483	9.98452#11.5	10.9	6.9
13.3372	16.6483	9.98452#11.5	10.9	6.9
11.416	21.0543	12.1556#9.6	9.0	6.9
14.9937	26.9845	14.606#9.6	9.0	6.9
20.4979	35.8204	19.4876#9.6	9.0	6.9
9.84032	28.7175	12.4047#9.6	10.9	6.9
17.5862	30.1303	16.697#9.6	10.9	6.9
8.01103	13.7074	6.70735#9.6	10.9	6.9
21.8064	31.8762	18.8671#9.6	10.9	6.9
24.5454	38.8205	24.0228#9.6	10.9	6.9
15.6533	25.5298	14.5368#9.6	10.9	6.9
8.09506	13.9899	8.19848#9.6	10.9	6.9
27.1433	37.4697	22.0837#7.6	9.0	6.9
8.86477	17.8084	10.9104#7.6	9.0	6.9
12.8069	22.572	13.6102#7.6	9.0	6.9
13.3854	21.6842	13.5469#7.6	9.0	6.9
8.38234	16.4725	7.49717#9.6	10.9	6.9
12.7747	18.8736	12.3372#9.6	10.9	6.9
13.8723	29.44	18.0256#9.6	9.0	6.9
13.973	30.864	18.7102#9.6	9.0	6.9
14.4067	28.8964	19.412#9.6	9.0	6.9
12.0027	20.5442	12.2057#9.6	10.9	6.9
11.5427	14.3079	7.7741#9.6	10.9	6.9
9.34942	14.7291	8.34239#9.6	10.9	6.9
19.6647	42.7138	28.5933#9.6	9.0	6.9
14.3921	29.5481	17.7458#9.6	9.0	6.9
16.8678	36.6708	24.1515#9.6	9.0	6.9
16.8678	36.6708	24.1515#9.6	9.0	6.9
16.4401	28.3466	18.8796#9.6	9.0	6.9
9.5706	12.0021	6.1522#9.6	10.9	6.9
20.2332	34.2802	18.3683#9.6	10.9	6.9
16.5458	36.9424	19.2304#9.6	10.9	4.6
11.686	25.6506	14.6165#9.6	10.9	4.6
15.9809	28.4325	15.3571#9.6	10.9	4.6
18.1804	41.0538	24.7841#9.6	10.9	6.9
18.1804	41.0538	24.7841#9.6	10.9	6.9
28.3061	38.4722	22.1725#11.5	10.9	6.9
23.3701	33.9212	18.7092#11.5	10.9	6.9
12.5472	29.8481	16.215#11.5	10.9	6.9
20.1684	26.4926	16.3553#11.5	10.9	4.6
18.417	41.2673	25.6767#11.5	10.9	4.6
16.4634	36.0011	23.5783#11.5	10.9	4.6
18.7323	32.7525	19.9768#11.5	10.9	6.9
11.5133	13.9203	7.78756#11.5	10.9	6.9
7.44655	12.2178	7.80368#9.6	10.9	6.9
13.028	24.026	14.375#9.6	10.9	6.9
17.5557	29.9683	17.2701#9.6	10.9	6.9
21.1089	28.4421	18.184#9.6	10.9	6.9
21.8711	28.4024	17.6192#9.6	10.9	6.9
17.1516	40.0166	21.4939#9.6	10.9	6.9
15.9854	36.5683	18.2488#9.6	10.9	6.9
23.4342	29.1071	17.7043#9.6	10.9	6.9
23.4342	29.1071	17.7043#9.6	10.9	6.9
11.4157	28.5001	14.3664#9.6	10.9	6.9
13.3518	23.3171	10.6351#9.6	10.9	6.9
15.7141	30.6842	13.8927#9.6	10.9	6.9
15.7141	30.6842	13.8927#9.6	10.9	6.9
16.5753	32.0029	13.8692#9.6	10.9	6.9
18.3221	32.9972	17.9787#9.6	10.9	6.9
18.3221	32.9972	17.9787#9.6	10.9	6.9
12.3164	21.1105	11.8325#9.6	10.9	6.9
9.34008	23.4445	10.1367#9.6	10.9	6.9
9.34008	23.4445	10.1367#9.6	10.9	6.9
9.17667	15.7838	8.51958#9.6	10.9	6.9
6.93479	13.66	5.66514#9.6	10.9	6.9
8.33011	23.5194	8.7623#9.6	10.9	6.9
4.23982	7.22398	2.64092#9.6	10.9	6.9
4.23982	7.22398	2.64092#9.6	10.9	6.9
7.29255	14.263	7.30508#9.6	10.9	6.9
13.0936	22.5543	13.3868#9.6	10.9	6.9
11.8056	21.9885	10.0695#9.6	10.9	6.9
13.9787	21.6343	10.4504#9.6	10.9	6.9
13.9787	21.6343	10.4504#7.6	10.9	6.9
16.745	26.7416	13.251#7.6	10.9	6.9
16.61	20.5961	12.2392#7.6	10.9	6.9
16.822	21.7272	12.7446#9.6	10.9	6.9
11.6002	20.5438	14.097#9.6	10.9	6.9
16.6402	27.115	16.2452#9.6	10.9	6.9
16.6402	27.115	16.2452#9.6	10.9	6.9
15.9887	27.278	16.5124#9.6	10.9	6.9
11.4827	18.5755	10.2677#9.6	10.9	6.9
6.76889	16.3347	7.15099#9.6	10.9	6.9
14.0717	20.464	12.2352#9.6	10.9	6.9
11.7995	26.4035	15.4841#9.6	10.9	6.9
11.7995	26.4035	15.4841#9.6	10.9	6.9
11.5736	23.025	13.2471#9.6	10.9	6.9
11.5736	23.025	13.2471#9.6	10.9	6.9
12.6389	31.4956	18.7754#9.6	10.9	6.9
12.7448	21.3057	12.4413#9.6	10.9	6.9
8.19615	19.0981	7.92888#9.6	10.9	6.9
12.5447	17.6971	9.0635#9.6	10.9	6.9
10.9739	18.6981	8.13698#9.6	10.9	6.9
8.4165	20.2686	9.19876#9.6	10.9	6.9
12.9086	26.2343	15.0206#9.6	10.9	6.9
7.69956	11.3293	6.04811#9.6	10.9	6.9
7.69956	11.3293	6.04811#9.6	10.9	6.9
8.38555	12.8184	7.89453#9.6	10.9	6.9
14.2115	17.8972	9.97386#9.6	10.9	6.9
17.0506	26.7429	16.6097#9.6	10.9	6.9
10.4207	14.2031	8.70623#9.6	10.9	6.9
10.841	23.9481	13.8954#9.6	10.9	6.9
12.2308	27.761	17.1625#9.6	10.9	6.9
16.8791	25.6305	15.4282#9.6	10.9	6.9
14.4218	32.2094	15.4514#9.6	10.9	6.9
14.4218	32.2094	15.4514#9.6	10.9	6.9
7.69466	22.4432	9.28228#9.6	10.9	6.9
8.60745	15.1975	9.03314#9.6	10.9	6.9
12.8862	20.998	9.60469#9.6	10.9	6.9
12.8862	20.998	9.60469#9.6	10.9	6.9
8.43256	15.6712	9.80671#9.6	10.9	6.9
10.4865	16.6047	9.73839#9.6	10.9	6.9
13.7548	18.9593	9.89206#9.6	10.9	6.9
10.6877	19.3277	9.11128#9.6	10.9	6.9
10.6877	19.3277	9.11128#9.6	10.9	6.9
10.8185	21.899	9.4935#9.6	10.9	6.9
11.7833	19.6831	8.88471#9.6	10.9	6.9
7.30786	9.61104	5.06398#9.6	10.9	6.9
8.90224	14.4301	8.04684#9.6	10.9	6.9
9.50002	14.5844	9.35405#9.6	10.9	6.9
10.0017	14.851	8.6662#9.6	10.9	6.9
10.0017	14.851	8.6662#9.6	10.9	6.9
10.3636	17.332	10.5338#9.6	10.9	6.9
4.98569	9.78658	4.24307#9.6	10.9	6.9
7.31793	15.3065	8.73804#9.6	10.9	6.9
16.211	31.421	18.9964#9.6	10.9	6.9
8.05224	17.0457	9.95584#9.6	10.9	6.9
10.3294	20.6438	12.1406#9.6	10.9	6.9
10.2941	15.6405	8.73487#9.6	10.9	6.9
11.972	14.9041	8.12596#7.6	10.9	6.9
11.972	14.9041	8.12596#7.6	10.9	6.9
10.9882	18.0347	9.98342#7.6	10.9	6.9
10.9882	18.0347	9.98342#9.6	10.9	6.9
10.0729	16.1241	9.29443#9.6	10.9	6.9
12.3613	24.5867	12.2223#9.6	10.9	6.9
19.7789	37.6353	23.2208#7.6	10.9	6.9
11.9061	18.0046	9.46735#7.6	10.9	6.9
11.6113	19.0132	10.9298#9.6	10.9	6.9
11.083	15.93	10.1349#9.6	10.9	6.9
13.524	27.3819	17.6945#9.6	10.9	6.9
10.3166	12.8685	6.7409#9.6	10.9	6.9
10.4776	12.7074	7.08124#7.6	10.9	6.9
13.8594	21.6621	10.7592#7.6	10.9	6.9
19.9486	29.967	17.6858#7.6	10.9	6.9
13.7594	23.2662	14.4763#9.6	10.9	6.9
13.7195	20.3944	12.244#9.6	10.9	6.9
14.9318	23.6531	14.8838#7.6	10.9	6.9
13.5383	21.7221	13.8979#7.6	10.9	6.9
7.92814	13.8647	7.79679#7.6	10.9	6.9
7.92814	13.8647	7.79679#7.6	10.9	6.9
11.7997	22.1701	11.9993#7.6	10.9	6.9
11.7997	22.1701	11.9993#7.6	10.9	6.9
19.0642	39.436	18.6002#7.6	10.9	6.9
14.11	29.8201	12.5186#7.6	10.9	6.9
7.94388	12.8885	8.45691#7.6	10.9	6.9
7.94388	12.8885	8.45691#7.6	9.0	6.9
13.0444	23.2533	13.7786#7.6	9.0	6.9
13.3232	33.9191	14.7091#9.6	10.9	6.9
10.5388	34.0123	12.397#9.6	10.9	6.9
13.6081	37.5882	16.5013#9.6	10.9	6.9
16.6667	21.0919	12.0091#9.6	10.9	6.9
9.925	15.9883	9.23521#9.6	10.9	6.9
10.3409	15.7185	9.69462#9.6	10.9	6.9
10.3409	15.7185	9.69462#9.6	10.9	6.9
15.6912	19.0693	11.3231#9.6	10.9	6.9
13.2924	21.0099	11.6147#9.6	10.9	6.9
12.76	20.3033	9.48599#9.6	10.9	6.9
9.836	17.6481	9.098#9.6	10.9	6.9
9.836	17.6481	9.098#9.6	10.9	6.9
13.2227	20.339	12.5261#9.6	10.9	6.9
8.67691	18.2139	10.8865#9.6	10.9	6.9
8.67691	18.2139	10.8865#9.6	10.9	6.9
6.08543	10.773	6.14805#9.6	10.9	6.9
5.93457	8.04035	4.22094#9.6	10.9	6.9
8.27415	18.7051	6.67119#9.6	10.9	4.6
11.1488	26.5858	9.70176#9.6	10.9	4.6
9.27996	18.0325	7.09244#9.6	10.9	6.9
12.5469	30.4153	11.2283#9.6	10.9	6.9
12.5469	30.4153	11.2283#9.6	10.9	6.9
7.6335	19.9402	7.01758#9.6	10.9	6.9
10.6921	15.9025	9.49323#9.6	10.9	6.9
10.071	12.9395	6.70245#9.6	10.9	6.9
10.6995	17.147	8.17152#9.6	10.9	6.9
7.62433	12.8774	6.41795#9.6	10.9	6.9
7.41633	12.7132	7.44991#9.6	10.9	6.9
9.73366	23.3913	12.8428#9.6	10.9	6.9
10.875	21.4612	12.668#9.6	9.0	6.9
7.32722	8.96358	4.46405#9.6	9.0	6.9
8.22187	10.695	5.34537#9.6	9.0	6.9
8.1185	12.3369	7.14627#9.6	10.9	6.9
9.91759	20.5966	11.4225#9.6	10.9	6.9
11.0318	18.5642	11.6374#11.5	10.9	6.9
8.71908	13.1544	7.96399#11.5	10.9	6.9
10.8882	17.6889	10.166#11.5	10.9	6.9
13.1938	30.0714	17.1221#9.6	10.9	6.9
12.0552	27.4827	14.2388#9.6	10.9	6.9
9.87716	17.5172	9.81388#9.6	10.9	6.9
10.263	14.7186	8.03222#9.6	10.9	6.9
12.04	16.0724	9.25878#9.6	10.9	6.9
8.25846	13.7023	7.70972#9.6	10.9	6.9
23.7581	34.2551	20.1297#9.6	10.9	6.9
21.1815	31.8258	18.9264#9.6	10.9	6.9
8.98608	17.4538	10.8945#9.6	10.9	6.9
8.76805	16.4412	7.26094#9.6	10.9	6.9
9.48782	14.6606	6.57708#9.6	10.9	6.9
12.2727	20.6844	9.39231#9.6	10.9	6.9
10.8416	20.5872	10.3942#9.6	10.9	6.9
9.98015	13.0008	7.20738#9.6	10.9	6.9
12.3244	17.0624	9.94597#9.6	10.9	6.9
12.3244	17.0624	9.94597#9.6	10.9	6.9
12.1576	20.3852	11.7721#9.6	10.9	6.9
8.0265	17.1023	9.83241#9.6	10.9	6.9
9.82799	18.2697	10.288#9.6	9.0	6.9
8.61699	13.9825	8.37215#9.6	9.0	6.9
11.7301	16.6869	9.60846#9.6	10.9	6.9
14.3951	17.72	10.171#9.6	10.9	6.9
10.4507	12.2434	6.93853#9.6	10.9	6.9
10.4165	18.4376	9.07395#9.6	10.9	6.9
10.0822	19.8526	11.2749#9.6	10.9	6.9
8.21506	19.0799	9.2553#9.6	10.9	6.9
8.41445	16.0189	6.99918#9.6	9.0	6.9
8.41445	16.0189	6.99918#9.6	9.0	6.9
11.9061	17.6601	11.5207#9.6	10.9	6.9
5.61257	16.5838	4.86538#9.6	10.9	6.9
6.32647	12.5799	5.00659#9.6	10.9	6.9
6.32647	12.5799	5.00659#9.6	10.9	6.9
12.8929	17.509	9.20901#9.6	10.9	4.6
14.4207	19.5019	12.135#9.6	10.9	4.6
8.77318	12.2984	6.53164#9.6	10.9	4.6
12.591	20.8998	10.335#9.6	9.0	6.9
12.591	20.8998	10.335#9.6	9.0	6.9
12.9646	22.0444	11.9409#11.5	9.0	6.9
12.3993	19.7561	9.20161#11.5	9.0	6.9
10.0376	16.462	7.22478#11.5	9.0	6.9
10.0376	16.462	7.22478#11.5	9.0	6.9
9.99527	16.3926	8.22844#11.5	9.0	6.9
8.51234	13.1775	5.93077#11.5	9.0	6.9
8.51234	13.1775	5.93077#11.5	9.0	6.9
7.34444	12.3052	5.95891#11.5	9.0	6.9
8.49765	15.0353	7.05254#11.5	9.0	6.9
6.55473	13.1563	6.94064#11.5	9.0	6.9
6.55473	13.1563	6.94064#11.5	9.0	6.9
6.9349	14.1411	8.0155#11.5	9.0	6.9
9.79293	15.8842	8.90843#11.5	9.0	6.9
10.8924	20.7066	13.1945#11.5	9.0	6.9
8.03097	16.7338	7.4929#11.5	9.0	6.9
8.03097	16.7338	7.4929#11.5	9.0	6.9
6.17749	9.15009	4.34215#11.5	9.0	6.9
6.07405	10.9239	5.82448#11.5	10.9	6.9
10.221	14.8867	8.42321#11.5	10.9	6.9
13.199	19.2947	11.1492#11.5	10.9	6.9
7.50232	8.99051	4.73231#11.5	10.9	6.9
9.80405	16.811	7.61246#11.5	10.9	6.9
9.05941	18.5554	7.07003#9.6	9.0	6.9
9.05941	18.5554	7.07003#9.6	9.0	6.9
8.34863	14.155	6.81216#9.6	9.0	4.6
11.8951	17.6105	9.71748#9.6	9.0	4.6
12.7046	22.8404	13.4741#9.6	9.0	4.6
12.7046	22.8404	13.4741#9.6	9.0	4.6
13.0623	27.0399	17.4606#11.5	10.9	4.6
14.5926	22.2865	13.0765#11.5	10.9	4.6
14.4135	19.4135	11.0727#11.5	10.9	4.6
9.25609	15.8927	8.70223#9.6	9.0	6.9
6.19394	8.25385	4.39029#9.6	9.0	6.9
7.64143	11.0893	6.39949#9.6	9.0	6.9
6.39032	11.2829	6.26521#9.6	9.0	6.9
8.10972	12.8322	7.6764#9.6	9.0	6.9
14.8126	23.0514	12.7438#9.6	9.0	6.9
9.01202	18.064	10.7583#9.6	10.9	6.9
9.01202	18.064	10.7583#9.6	10.9	6.9
15.2656	33.5784	17.3668#9.6	10.9	6.9
15.4448	27.9825	12.8406#9.6	10.9	6.9
14.7304	22.8212	11.493#9.6	9.0	6.9
15.9265	36.773	17.6362#9.6	9.0	6.9
16.4269	29.3676	13.3744#9.6	9.0	4.6
13.6847	22.2869	11.0507#9.6	9.0	4.6
13.6847	22.2869	11.0507#9.6	9.0	4.6
9.59748	16.4821	6.97609#9.6	9.0	4.6
6.81891	13.0195	7.36438#9.6	9.0	6.9
11.1398	19.4895	12.5595#9.6	9.0	6.9
9.52247	17.0658	11.2232#9.6	9.0	6.9
8.6691	17.4411	7.49707#9.6	9.0	6.9
10.0909	15.1089	7.22493#9.6	9.0	6.9
5.85954	8.35575	3.52235#9.6	9.0	6.9
12.2517	26.4824	16.0831#9.6	9.0	6.9
12.7116	26.2851	17.0755#9.6	9.0	6.9
9.97798	21.8494	12.3436#9.6	9.0	6.9
9.97798	21.8494	12.3436#9.6	9.0	6.9
8.01529	15.3984	7.74746#9.6	9.0	6.9
8.31788	10.9175	5.44172#9.6	9.0	6.9
8.31788	10.9175	5.44172#9.6	9.0	6.9
11.5431	14.4409	7.87232#9.6	10.9	4.6
11.5431	14.4409	7.87232#9.6	10.9	4.6
12.1107	15.4607	8.35724#9.6	10.9	4.6
15.9372	20.9669	12.5276#9.6	9.0	6.9
9.59945	16.3315	7.22553#9.6	9.0	6.9
8.16918	13.9038	6.63346#9.6	9.0	4.6
6.71086	14.261	6.71556#9.6	9.0	4.6
7.12281	15.3047	7.86243#9.6	9.0	4.6
7.69235	15.4402	6.99838#9.6	9.0	6.9
11.0712	15.976	9.81701#9.6	9.0	6.9
9.78178	11.9517	7.1534#9.6	9.0	6.9
9.78178	11.9517	7.1534#9.6	9.0	6.9
8.39778	17.9663	9.38642#9.6	9.0	6.9
8.24747	12.9711	6.45605#9.6	10.9	6.9
6.13434	8.87666	4.41245#9.6	10.9	6.9
6.53319	12.1954	6.77085#9.6	10.9	6.9
6.53319	12.1954	6.77085#9.6	10.9	4.6
6.70911	13.3785	5.4103#9.6	10.9	4.6
6.70911	13.3785	5.4103#9.6	10.9	6.9
6.33203	11.9979	5.83203#9.6	10.9	6.9
11.3138	14.8549	8.07745#9.6	10.9	6.9
7.19686	12.9328	6.5856#9.6	10.9	6.9
10.432	17.3336	9.60108#9.6	10.9	6.9
10.8745	16.2938	9.10005#9.6	10.9	6.9
8.25032	15.1348	9.47938#9.6	10.9	4.6
4.95763	9.98853	4.05742#9.6	10.9	4.6
4.95763	9.98853	4.05742#9.6	10.9	4.6
9.01446	12.077	6.21117#9.6	10.9	4.6
8.20441	11.4395	5.52108#9.6	10.9	4.6
8.20441	11.4395	5.52108#9.6	10.9	6.9
6.34435	11.8077	5.9031#9.6	10.9	6.9
8.11907	14.3364	9.09683#9.6	10.9	6.9
11.4959	20.5037	12.1609#9.6	10.9	6.9
7.19266	15.4266	7.82416#9.6	10.9	6.9
7.19266	15.4266	7.82416#9.6	10.9	6.9
11.3965	19.7754	11.5195#9.6	10.9	6.9
11.3965	19.7754	11.5195#9.6	10.9	6.9
21.5287	31.5017	19.4397#9.6	10.9	6.9
19.1306	33.1641	22.5676#9.6	10.9	6.9
10.7289	19.7625	9.72505#9.6	10.9	6.9
15.045	20.5554	12.9179#9.6	10.9	6.9
15.045	20.5554	12.9179#9.6	10.9	4.6
10.3214	14.2876	7.56927#9.6	10.9	4.6
13.6028	23.3718	13.154#9.6	10.9	4.6
7.04935	14.4893	8.23137#7.6	10.9	6.9
15.8523	23.5692	12.925#7.6	10.9	6.9
18.4841	26.5512	13.7762#7.6	10.9	6.9
13.6521	22.3172	10.3515#9.6	10.9	4.6
8.33455	19.6083	8.73373#9.6	10.9	4.6
10.2396	22.5897	8.73732#9.6	10.9	4.6
9.86211	20.3738	8.16684#9.6	10.9	4.6
9.86211	20.3738	8.16684#9.6	10.9	4.6
5.74662	7.4045	3.47142#7.6	10.9	6.9
10.8912	25.0879	13.0681#7.6	10.9	6.9
10.8912	25.0879	13.0681#7.6	10.9	6.9
10.9954	20.7209	13.6105#7.6	10.9	6.9
10.5632	18.2975	10.3527#7.6	10.9	4.6
10.5632	18.2975	10.3527#7.6	10.9	4.6
13.5078	19.5786	10.617#7.6	9.0	6.9
13.1637	23.8111	13.5202#7.6	9.0	6.9
14.549	24.7263	13.8529#7.6	9.0	6.9
9.60253	22.3845	12.2347#7.6	9.0	6.9
9.99245	17.2713	9.12896#7.6	9.0	6.9
9.99245	17.2713	9.12896#9.6	10.9	4.6
13.0253	25.5286	10.5865#9.6	10.9	4.6
15.0789	36.1674	13.9757#9.6	10.9	4.6
15.0789	36.1674	13.9757#9.6	10.9	6.9
20.1697	38.8493	17.1817#9.6	10.9	6.9
21.837	33.3763	16.7801#9.6	9.0	6.9
16.7875	22.3025	12.1843#9.6	9.0	6.9
9.33346	16.785	7.51259#9.6	9.0	6.9
8.14676	16.4978	9.63168#7.6	9.0	6.9
12.5728	17.8879	11.4841#7.6	9.0	6.9
16.5716	23.7561	15.2266#7.6	9.0	6.9
8.99319	20.7975	10.4078#9.6	10.9	6.9
16.2955	24.2567	12.3676#9.6	10.9	6.9
11.6696	28.9931	14.7651#9.6	9.0	6.9
8.24271	14.1247	7.33908#9.6	9.0	6.9
10.2337	13.6938	7.27356#7.6	9.0	6.9
10.2337	13.6938	7.27356#7.6	9.0	6.9
10.1877	13.6529	7.41033#7.6	9.0	6.9
9.03867	15.5975	8.71302#7.6	9.0	6.9
9.55015	12.0523	6.6721#7.6	9.0	6.9
11.096	13.4982	7.94181#7.6	9.0	6.9
10.7716	18.6403	10.9811#7.6	9.0	6.9
16.0898	21.5319	13.7467#7.6	9.0	6.9
12.45	18.0554	11.2631#7.6	9.0	6.9
10.0264	19.7174	9.53827#7.6	10.9	4.6
14.2343	19.8427	11.2081#7.6	10.9	4.6
10.3014	15.3251	7.86989#7.6	10.9	4.6
9.59436	11.2019	6.43453#7.6	10.9	4.6
10.3232	13.8185	7.79337#7.6	9.0	4.6
18.4716	28.1137	18.0595#7.6	9.0	4.6
16.246	29.2778	15.4112#7.6	9.0	6.9
11.1364	24.6364	12.5872#7.6	9.0	6.9
7.00237	11.6722	6.71334#7.6	9.0	6.9
7.00237	11.6722	6.71334#9.6	10.9	6.9
11.0082	23.2266	11.709#9.6	10.9	6.9
7.97911	16.7127	7.22183#9.6	10.9	6.9
11.7714	20.5499	13.8655#7.6	10.9	4.6
10.2978	15.2614	8.21143#7.6	10.9	4.6
8.94863	13.0555	6.93623#7.6	10.9	4.6
8.05107	16.3336	9.70071#7.6	10.9	4.6
8.8771	13.4636	6.44267#7.6	10.9	4.6
11.6818	23.6636	12.9575#9.6	10.9	6.9
11.6818	23.6636	12.9575#9.6	10.9	6.9
11.5438	18.4201	8.95693#9.6	10.9	6.9
11.5438	18.4201	8.95693#9.6	10.9	6.9
7.02203	15.4868	7.6279#7.6	10.9	6.9
13.2569	21.1676	12.7493#7.6	10.9	6.9
14.3768	19.5583	10.9973#9.6	10.9	6.9
9.28914	16.6369	6.83737#9.6	10.9	6.9
9.28914	16.6369	6.83737#9.6	9.0	6.9
14.2374	25.8291	13.548#9.6	9.0	6.9
19.8727	26.862	14.4939#9.6	9.0	6.9
12.0591	19.357	10.7865#9.6	9.0	6.9
12.0591	19.357	10.7865#9.6	9.0	6.9
16.0972	30.0923	16.1447#9.6	9.0	6.9
15.7143	31.7482	17.0296#9.6	9.0	6.9
15.7143	31.7482	17.0296#9.6	9.0	6.9
19.7139	38.4513	20.3058#9.6	9.0	6.9
10.3881	19.3854	10.2417#9.6	9.0	6.9
12.8649	18.8742	11.2751#9.6	9.0	6.9
14.9145	18.2146	11.0489#9.6	9.0	6.9
11.0744	14.2406	8.38233#9.6	9.0	6.9
11.2132	12.9178	7.60486#9.6	9.0	6.9
11.2132	12.9178	7.60486#9.6	9.0	6.9
14.6271	21.9181	11.742#11.5	10.9	6.9
14.8913	23.7882	11.2142#15.3	10.9	6.9
18.2681	29.5453	18.2284#15.3	10.9	6.9
11.3039	23.2386	11.4213#17.3	12.7	9.3
11.3039	23.2386	11.4213#17.3	12.7	9.3
18.081	24.7848	13.9577#19.2	14.5	6.9
23.3186	31.1587	18.1124#19.2	14.5	6.9
15.3325	29.1986	20.308#21.1	18.1	6.9
12.3144	20.3472	12.6016#21.1	18.1	6.9
8.67535	13.9023	6.47673#21.1	18.1	6.9
8.67535	13.9023	6.47673#21.1	21.8	6.9
18.2626	43.2348	25.1912#21.1	21.8	6.9
25.4483	33.8999	19.1392#21.1	20.0	6.9
28.5763	41.4996	22.3589#21.1	20.0	6.9
28.5763	41.4996	22.3589#21.1	20.0	6.9
24.7494	35.7397	19.8598#21.1	20.0	6.9
16.0559	27.1562	15.6001#21.1	20.0	6.9
15.911	23.2459	13.0332#21.1	20.0	6.9
27.3936	50.2649	29.1449#21.1	20.0	6.9
26.5198	48.499	27.5216#21.1	20.0	6.9
16.0587	24.4719	11.9759#21.1	20.0	6.9
18.4697	34.298	17.6406#21.1	20.0	6.9
17.7333	32.8144	14.9681#21.1	20.0	6.9
11.3542	19.3014	8.7784#19.2	18.1	6.9
11.4372	27.4984	13.451#19.2	18.1	6.9
20.2489	30.4073	15.3589#19.2	18.1	6.9
20.2489	30.4073	15.3589#17.3	16.3	6.9
15.3602	21.2789	11.807#17.3	16.3	6.9
11.2999	23.3994	14.6031#17.3	16.3	6.9
13.8227	32.4378	19.0347#17.3	16.3	6.9
11.4135	25.8271	14.7812#17.3	16.3	6.9
6.25568	14.6611	6.69145#17.3	14.5	6.9
6.25568	14.6611	6.69145#17.3	14.5	6.9
12.8145	19.426	9.67403#13.4	10.9	6.9
11.2977	19.32	9.32842#13.4	10.9	6.9
12.5237	20.0639	9.40981#13.4	10.9	6.9
12.5237	20.0639	9.40981#13.4	10.9	6.9
6.72054	15.5108	7.55121#11.5	9.0	6.9
10.0684	17.7895	11.9359#11.5	9.0	6.9
10.4336	15.8206	9.23182#11.5	9.0	6.9
10.4336	15.8206	9.23182#11.5	9.0	6.9
11.9157	17.0011	9.86643#11.5	9.0	6.9
12.6841	18.7761	11.0641#11.5	9.0	6.9
15.4023	18.3768	11.1674#11.5	9.0	6.9
17.1385	20.4565	12.5351#11.5	9.0	6.9
12.1187	16.2853	8.83027#11.5	10.9	6.9
14.8024	26.4633	13.7159#11.5	10.9	6.9
10.4824	19.065	12.0872#11.5	9.0	6.9
16.6166	22.9051	12.8216#11.5	9.0	6.9
20.3193	26.3356	15.522#9.6	9.0	6.9
10.9635	19.3145	12.2445#9.6	9.0	6.9
11.0109	16.1954	8.06269#9.6	9.0	6.9
8.81871	14.259	8.60003#9.6	9.0	6.9
8.81871	14.259	8.60003#9.6	9.0	6.9
8.99572	16.9684	10.4044#9.6	9.0	6.9
7.89842	14.4523	8.27817#9.6	9.0	4.6
7.89842	14.4523	8.27817#9.6	9.0	4.6
8.75359	17.3789	9.27962#9.6	9.0	4.6
9.48382	16.3531	8.24154#9.6	9.0	4.6
10.7736	20.0476	11.3724#9.6	9.0	4.6
12.5136	22.8935	10.5841#9.6	9.0	4.6
12.5136	22.8935	10.5841#9.6	9.0	6.9
13.8817	20.3629	11.3959#9.6	9.0	6.9
7.1503	13.5171	5.66473#9.6	9.0	6.9
7.1503	13.5171	5.66473#9.6	9.0	6.9
6.62462	13.7786	4.91986#9.6	9.0	4.6
16.508	22.2423	11.8047#9.6	9.0	4.6
15.8252	25.3867	12.0195#9.6	9.0	6.9
15.8252	25.3867	12.0195#9.6	9.0	6.9
8.91929	16.9917	7.49811#9.6	9.0	6.9
11.4966	22.0407	12.1772#9.6	9.0	6.9
11.4966	22.0407	12.1772#9.6	9.0	4.6
10.5675	22.1943	12.7939#9.6	9.0	4.6
9.69585	17.573	11.17#9.6	9.0	4.6
12.3882	21.7183	14.4598#9.6	9.0	4.6
12.1489	17.3334	9.56135#9.6	9.0	4.6
12.1489	17.3334	9.56135#9.6	9.0	6.9
14.3352	17.1481	10.1915#9.6	9.0	6.9
15.8331	26.977	17.0277#9.6	9.0	6.9
11.3302	15.2402	7.99509#9.6	9.0	6.9
11.3302	15.2402	7.99509#7.6	9.0	4.6
25.5884	31.2481	19.5615#7.6	9.0	4.6
16.1975	29.8797	20.3637#9.6	9.0	6.9
16.1975	29.8797	20.3637#9.6	9.0	6.9
14.8626	17.7538	10.6206#9.6	9.0	4.6
14.843	19.9376	11.0505#9.6	9.0	4.6
15.5838	24.7173	14.9572#9.6	9.0	4.6
12.4815	20.3134	11.2765#9.6	9.0	4.6
12.4815	20.3134	11.2765#9.6	9.0	4.6
24.9464	44.686	25.8666#9.6	9.0	4.6
9.76952	21.5482	10.9202#9.6	9.0	6.9
15.7917	25.5887	14.6005#9.6	9.0	6.9
12.047	21.4823	11.4846#9.6	9.0	6.9
25.3885	38.8361	21.7535#9.6	9.0	6.9
14.2392	36.708	19.4893#11.5	9.0	6.9
19.3017	28.0991	15.6746#11.5	10.9	6.9
10.6776	21.1872	11.7377#11.5	10.9	6.9
12.7587	20.3079	11.3137#11.5	10.9	6.9
12.5099	26.3131	14.2355#13.4	12.7	6.9
7.20211	16.3332	8.49757#13.4	12.7	6.9
14.6652	21.4039	12.4345#13.4	12.7	6.9
7.57821	15.7925	9.02322#13.4	12.7	6.9
20.2914	24.4679	15.1585#13.4	12.7	6.9
20.2914	24.4679	15.1585#13.4	16.3	6.9
20.8726	38.022	23.8511#13.4	16.3	6.9
11.3525	18.3636	10.9075#15.3	20.0	6.9
11.3525	18.3636	10.9075#15.3	20.0	6.9
26.1815	32.6482	19.9853#15.3	25.4	6.9
8.37965	17.2416	9.02557#15.3	25.4	6.9
14.0275	19.0168	10.9158#15.3	25.4	6.9
16.6219	22.4204	12.9607#15.3	30.9	6.9
9.5957	18.0073	10.9249#15.3	29.0	6.9
20.6463	35.4082	20.3572#15.3	29.0	6.9
21.6031	37.4694	21.9464#15.3	29.0	6.9
13.1876	26.095	14.8061#15.3	29.0	6.9
12.8136	28.1691	16.9843#15.3	29.0	6.9
9.25658	21.2049	12.3951#15.3	23.6	6.9
11.1968	27.108	16.0551#15.3	23.6	6.9
15.2162	34.3083	21.9364#13.4	20.0	6.9
21.9271	39.4681	25.2188#13.4	20.0	6.9
13.7149	26.4385	15.1995#15.3	20.0	6.9
11.8716	26.4996	16.4279#15.3	20.0	6.9
14.8287	29.3261	17.353#13.4	18.1	6.9
12.2666	25.8016	14.2425#13.4	18.1	6.9
12.6347	27.0024	15.7527#13.4	18.1	6.9
12.9378	21.9653	13.1215#13.4	18.1	6.9
11.6423	18.3021	10.7183#13.4	18.1	6.9
25.2555	53.8939	37.1679#13.4	18.1	6.9
25.0795	53.4761	36.8757#13.4	18.1	6.9
21.4844	44.334	30.6057#13.4	18.1	6.9
25.5174	55.1141	37.8052#13.4	18.1	6.9
15.5089	31.5558	21.2565#13.4	18.1	6.9
14.8212	24.6365	14.2514#13.4	18.1	6.9
12.6477	28.8346	17.8266#13.4	16.3	6.9
11.4593	20.6949	12.2551#13.4	16.3	6.9
6.05363	12.379	6.33843#13.4	16.3	6.9
8.44953	14.4892	8.33538#13.4	16.3	6.9
8.44953	14.4892	8.33538#13.4	16.3	6.9
14.1338	26.1246	15.2608#13.4	16.3	6.9
14.1338	26.1246	15.2608#13.4	14.5	4.6
17.9376	24.3694	14.9249#13.4	14.5	4.6
22.7944	40.9071	25.9976#13.4	14.5	4.6
22.7944	40.9071	25.9976#11.5	12.7	4.6
24.5075	40.1771	25.6096#11.5	12.7	4.6
22.2181	36.1223	22.924#11.5	12.7	4.6
26.0873	42.4378	26.3954#11.5	12.7	4.6
9.06319	15.188	7.29098#11.5	12.7	4.6
17.2662	25.7922	13.2951#11.5	12.7	6.9
16.6652	23.4039	12.1492#11.5	12.7	6.9
15.1634	21.4329	11.5097#11.5	10.9	6.9
24.5812	39.0203	23.9161#11.5	10.9	6.9
24.5812	39.0203	23.9161#11.5	10.9	6.9
9.6666	17.6462	10.2949#9.6	10.9	6.9
9.31594	15.9288	7.35927#9.6	10.9	6.9
9.31594	15.9288	7.35927#9.6	10.9	4.6
19.8067	27.2168	15.2971#9.6	10.9	4.6
10.2353	18.8559	10.585#9.6	10.9	4.6
10.3395	20.3939	13.0493#9.6	10.9	4.6
9.89711	19.7555	12.4541#9.6	10.9	4.6
9.74115	18.2571	11.8136#9.6	10.9	4.6
7.10231	13.4574	7.92779#9.6	9.0	6.9
15.1055	21.8284	12.2266#9.6	9.0	6.9
12.2164	23.6525	15.7606#9.6	10.9	4.6
14.4355	28.2367	19.2136#9.6	10.9	4.6
15.3225	21.0668	12.5289#7.6	9.0	6.9
12.4976	20.2133	12.0453#7.6	9.0	6.9
21.1989	30.8903	18.064#7.6	9.0	6.9
15.2792	20.4799	12.6019#7.6	9.0	6.9
12.7433	23.1407	14.7521#7.6	9.0	4.6
11.5017	21.2336	13.9206#7.6	9.0	4.6
11.5432	20.9871	12.3024#7.6	9.0	4.6
10.2134	20.3333	12.2806#7.6	9.0	4.6
22.1124	36.6575	23.6033#7.6	9.0	4.6
14.8011	28.6223	19.6574#7.6	9.0	4.6
7.49826	14.004	6.21646#7.6	9.0	4.6
12.273	14.7436	8.5446#7.6	9.0	4.6
12.273	14.7436	8.5446#7.6	9.0	4.6
7.76673	12.0336	7.765#7.6	9.0	4.6
7.76673	12.0336	7.765#7.6	9.0	6.9
22.5844	27.9622	17.0041#7.6	9.0	6.9
6.78853	11.9346	6.7095#7.6	9.0	6.9
12.1015	23.5348	15.6223#7.6	9.0	6.9
14.9372	24.5037	14.6162#7.6	9.0	6.9
8.97586	15.2059	10.1255#7.6	9.0	6.9
11.5945	17.9162	11.14#7.6	9.0	6.9
8.94284	17.3844	10.8253#7.6	9.0	6.9
9.36569	14.976	9.76935#7.6	9.0	6.9
7.13368	11.9406	5.81744#7.6	9.0	4.6
9.53059	14.8359	6.96312#7.6	9.0	4.6
24.7036	34.2562	20.1658#7.6	9.0	4.6
12.2046	19.2919	11.4478#7.6	9.0	4.6
12.2046	19.2919	11.4478#7.6	9.0	4.6
13.2683	18.5735	10.5376#7.6	9.0	4.6
16.0294	22.5869	12.1835#7.6	9.0	6.9
13.9232	21.589	10.5549#7.6	9.0	6.9
12.1157	18.4037	9.81397#7.6	9.0	4.6
8.3021	16.2486	6.24679#7.6	9.0	4.6
8.3021	16.2486	6.24679#7.6	9.0	4.6
20.1198	35.3549	18.6076#7.6	9.0	4.6
19.0072	32.7532	19.7001#7.6	9.0	6.9
14.1567	26.7964	18.165#7.6	9.0	6.9
13.9163	26.8686	17.8747#7.6	9.0	6.9
11.6517	26.6501	11.0459#7.6	9.0	6.9
14.0241	23.7955	14.5885#7.6	10.9	6.9
14.0241	23.7955	14.5885#7.6	10.9	6.9
10.9543	30.6575	13.9153#7.6	12.7	4.6
14.4955	23.892	14.3848#7.6	12.7	4.6
5.94311	14.9457	5.84774#7.6	20.0	4.6
17.289	32.119	17.532#7.6	20.0	4.6
9.17504	22.718	11.949#7.6	67.2	4.6
6.69896	19.2997	6.99527#7.6	67.2	4.6
12.1448	14.1827	8.37142#7.6	67.2	4.6
20.9481	26.676	15.7588#7.6	67.2	4.6
27.8444	65.4303	26.4185#7.6	89.0	4.6
23.5724	72.5421	25.6647#7.6	89.0	4.6
29.0644	74.5382	31.2957#7.6	89.0	4.6
20.6586	80.2539	24.8697#7.6	89.0	4.6
20.6586	80.2539	24.8697#7.6	94.5	4.6
18.4857	33.5453	21.7#7.6	94.5	4.6
14.8531	29.736	12.3017#7.6	98.1	4.6
18.5352	47.0205	25.7876#7.6	98.1	4.6
12.8861	45.5181	17.4069#7.6	98.1	6.9
12.8861	45.5181	17.4069#7.6	98.1	6.9
9.27417	36.8884	11.6523#7.6	98.1	6.9
15.7071	36.9901	18.0639#7.6	98.1	4.6
15.7071	36.9901	18.0639#7.6	98.1	4.6
10.1069	50.4102	13.5749#7.6	98.1	6.9
10.7726	43.9978	12.7418#7.6	98.1	6.9
9.76742	13.708	7.91556#7.6	98.1	4.6
9.76742	13.708	7.91556#7.6	98.1	4.6
19.0196	32.5146	19.1322#7.6	98.1	4.6
22.6451	37.9929	22.6108#7.6	98.1	4.6
25.2592	51.3508	30.9038#7.6	98.1	4.6
21.521	42.8604	26.4498#7.6	98.1	4.6
21.521	42.8604	26.4498#7.6	98.1	4.6
23.3416	47.7099	28.1514#7.6	98.1	4.6
22.4087	49.2086	31.8778#7.6	98.1	4.6
22.4087	49.2086	31.8778#7.6	98.1	4.6
21.2295	48.618	28.8063#7.6	98.1	4.6
16.9278	37.7223	22.2753#7.6	98.1	4.6
19.602	45.2604	27.1423#7.6	98.1	4.6
19.6287	44.4485	27.2492#7.6	98.1	4.6
19.7543	44.8319	27.4539#7.6	98.1	6.9
19.7543	44.8319	27.4539#7.6	98.1	6.9
22.6568	45.8915	27.3553#7.6	98.1	4.6
11.6183	15.3438	8.45447#7.6	98.1	4.6
21.9418	31.6748	17.7481#7.6	98.1	4.6
10.0476	12.222	6.59724#7.6	98.1	4.6
7.79894	13.1356	8.25665#7.6	98.1	4.6
7.79894	13.1356	8.25665#7.6	98.1	4.6
14.9799	24.1674	11.8828#7.6	98.1	6.9
12.2277	23.7661	11.0618#7.6	98.1	6.9
11.5183	23.4313	13.1423#7.6	98.1	4.6
11.5183	23.4313	13.1423#7.6	98.1	4.6
7.49932	10.4658	6.46697#7.6	96.3	4.6
7.49932	10.4658	6.46697#7.6	96.3	4.6
13.1635	19.0626	9.71603#7.6	96.3	4.6
13.3595	33.5145	15.7747#7.6	96.3	4.6
7.621	14.8771	7.71083#7.6	96.3	4.6
14.4042	31.0855	16.1255#7.6	90.9	4.6
13.1378	28.137	15.128#7.6	90.9	4.6
13.1378	28.137	15.128#7.6	90.9	4.6
13.5115	30.2812	17.6081#7.6	90.9	4.6
6.36267	13.8832	6.68376#7.6	52.7	4.6
7.28515	16.6929	8.65251#7.6	52.7	4.6
14.7932	20.7129	11.928#7.6	52.7	4.6
14.0207	23.2117	13.4789#7.6	23.6	4.6
21.9308	33.8452	19.5743#7.6	23.6	4.6
8.24345	14.3942	9.14582#7.6	18.1	4.6
7.12264	10.9691	6.55104#7.6	18.1	4.6
15.459	33.1291	21.0005#7.6	18.1	4.6
12.0433	20.2519	11.9637#7.6	12.7	6.9
12.0433	20.2519	11.9637#7.6	12.7	6.9
13.0346	24.544	15.0037#7.6	12.7	6.9
13.8367	26.5428	17.4479#7.6	12.7	6.9
18.4556	36.8268	25.32#7.6	10.9	6.9
18.4556	36.8268	25.32#7.6	10.9	6.9
18.558	27.5403	16.0097#7.6	10.9	4.6
14.1501	25.097	14.2269#7.6	10.9	4.6
14.2836	20.5802	10.5602#7.6	10.9	4.6
20.3163	42.7467	26.5626#7.6	10.9	6.9
14.8691	21.5894	14.1241#7.6	10.9	6.9
11.3612	22.9163	12.3496#7.6	10.9	6.9
8.19729	17.1001	8.48889#7.6	10.9	6.9
8.19729	17.1001	8.48889#7.6	10.9	6.9
14.8052	29.3683	16.2578#7.6	10.9	6.9
11.3305	21.727	13.8912#7.6	10.9	6.9
24.1016	47.6049	28.344#7.6	10.9	11.6
21.8609	42.9317	25.164#7.6	10.9	11.6
21.8609	42.9317	25.164#7.6	10.9	11.6
17.2223	30.9301	16.2826#7.6	12.7	20.9
21.4807	42.7806	26.1537#7.6	12.7	20.9
16.8707	39.1843	25.0041#7.6	12.7	20.9
15.1539	34.3831	21.9083#7.6	12.7	20.9
15.1539	34.3831	21.9083#7.6	16.3	79.0
43.6353	89.0013	54.0296#7.6	16.3	79.0
41.7175	75.992	47.4203#9.6	70.9	95.3
35.6619	77.2278	47.7237#9.6	70.9	95.3
24.8964	49.1203	35.2456#9.6	70.9	95.3
19.2355	26.5067	15.4608#9.6	89.0	97.6
8.23967	11.3969	6.47806#9.6	89.0	97.6
14.8171	24.3282	12.782#9.6	89.0	97.6
10.3874	35.3737	14.3573#9.6	92.7	97.6
10.3874	35.3737	14.3573#9.6	92.7	97.6
14.8278	23.3757	11.2608#9.6	92.7	97.6
20.6161	61.2617	33.7359#9.6	92.7	97.6
19.9232	50.9369	30.8957#9.6	92.7	97.6
19.9232	50.9369	30.8957#9.6	90.9	97.6
26.1481	48.1132	31.5972#9.6	90.9	97.6
16.1728	27.5444	18.2004#9.6	90.9	97.6
20.722	53.6481	32.3812#9.6	90.9	97.6
23.5597	59.5686	35.9084#9.6	90.9	97.6
12.9902	23.6738	16.4312#9.6	90.9	97.6
24.9041	46.14	30.435#9.6	90.9	97.6
24.9041	46.14	30.435#9.6	90.9	97.6
22.9738	48.4397	28.7081#9.6	90.9	97.6
9.81067	16.3843	9.27844#9.6	89.0	97.6
11.426	18.0908	8.35228#9.6	89.0	97.6
30.2995	52.1184	29.6795#9.6	87.2	97.6
24.9688	46.8826	25.4742#9.6	87.2	97.6
12.0288	20.104	9.27876#9.6	87.2	97.6
15.2811	23.4407	11.9865#9.6	85.4	95.3
16.3258	28.6429	13.8805#9.6	85.4	95.3
12.4501	19.298	9.09732#9.6	85.4	95.3
9.70925	12.5658	7.20411#9.6	85.4	95.3
18.4426	31.705	18.7224#9.6	85.4	95.3
18.4426	31.705	18.7224#9.6	85.4	95.3
19.1181	40.5289	26.1879#9.6	81.8	95.3
19.9169	43.7096	27.6472#9.6	81.8	95.3
17.9317	48.9374	27.9858#9.6	81.8	95.3
23.8504	48.0524	29.4695#9.6	81.8	95.3
23.8504	48.0524	29.4695#9.6	81.8	95.3
25.5742	48.9516	29.6666#9.6	81.8	95.3
22.1018	33.6581	19.9355#9.6	81.8	95.3
20.3884	29.4514	17.1633#9.6	81.8	95.3
20.6518	37.0889	23.4509#9.6	81.8	95.3
15.333	27.7472	18.6698#9.6	81.8	95.3
10.2742	23.14	13.7667#9.6	81.8	95.3
10.8914	15.8855	8.8377#9.6	81.8	93.0
7.31332	13.5659	6.00397#9.6	81.8	93.0
12.2962	15.1743	8.41107#9.6	80.0	95.3
15.188	19.5711	10.7397#9.6	80.0	95.3
15.188	19.5711	10.7397#9.6	80.0	95.3
11.6404	21.8974	14.3555#9.6	80.0	95.3
14.7907	20.2447	10.4993#9.6	74.5	90.6
14.8654	26.4039	15.8468#9.6	74.5	90.6
12.1997	21.8728	14.5937#9.6	74.5	90.6
15.079	30.2955	20.4616#9.6	47.2	81.3
14.2829	19.6778	11.8591#9.6	47.2	81.3
14.2829	19.6778	11.8591#9.6	25.4	58.1
11.3567	13.3138	7.70125#9.6	25.4	58.1
13.095	16.8499	9.15263#9.6	25.4	58.1
24.2039	30.1124	18.3458#9.6	18.1	32.5
24.2039	30.1124	18.3458#9.6	18.1	32.5
11.4388	16.8257	10.0513#9.6	16.3	23.2
12.2245	18.7906	11.775#9.6	16.3	23.2
10.8502	20.8959	12.9882#9.6	16.3	23.2
19.7891	25.3761	15.0147#7.6	14.5	18.6
12.5306	25.276	16.0091#7.6	14.5	18.6
12.5306	25.276	16.0091#9.6	14.5	16.2
14.5798	27.2406	15.7284#9.6	14.5	16.2
10.3965	18.0309	9.82286#9.6	14.5	16.2
13.1348	17.5304	9.16776#9.6	14.5	16.2
12.4575	26.1568	16.0472#9.6	12.7	13.9
23.4381	34.7792	20.117#9.6	12.7	13.9
21.3907	33.4761	20.4499#9.6	12.7	13.9
21.3907	33.4761	20.4499#9.6	12.7	13.9
23.4988	34.2074	18.8532#9.6	12.7	13.9
14.224	31.0032	19.3272#9.6	12.7	13.9
11.2711	23.7303	14.9764#9.6	12.7	11.6
10.6178	23.3461	13.526#9.6	12.7	11.6
8.85554	19.4677	9.87448#9.6	12.7	11.6
8.85554	19.4677	9.87448#9.6	12.7	13.9
10.0539	21.4578	12.1689#9.6	12.7	13.9
10.5225	20.2544	12.1908#9.6	12.7	11.6
12.4523	21.2823	14.5071#9.6	12.7	11.6
17.338	30.5603	16.1196#9.6	12.7	11.6
17.338	30.5603	16.1196#9.6	12.7	11.6
12.2975	22.1932	15.3365#9.6	12.7	13.9
16.741	30.5732	18.213#9.6	12.7	13.9
7.5536	10.9972	6.18903#9.6	12.7	13.9
24.2463	40.2527	22.2436#9.6	12.7	13.9
11.2846	15.312	9.17232#11.5	14.5	11.6
18.1565	29.2948	18.4009#11.5	14.5	11.6
7.30442	15.0723	8.64723#11.5	14.5	11.6
17.102	32.1155	19.0159#11.5	18.1	11.6
22.9708	33.74	19.6749#11.5	18.1	11.6
22.9708	33.74	19.6749#15.3	23.6	13.9
22.0383	33.8347	19.1096#15.3	23.6	13.9
13.0239	21.0518	11.1259#15.3	23.6	13.9
9.58665	24.0215	11.4467#17.3	29.0	13.9
11.3274	20.9675	11.269#17.3	29.0	13.9
12.5683	21.5889	12.7081#17.3	29.0	13.9
12.6637	19.5477	10.9246#17.3	34.5	13.9
14.3664	23.9727	13.4355#17.3	34.5	13.9
15.1572	27.2943	16.4603#17.3	34.5	13.9
10.1006	16.4945	9.84054#19.2	45.4	13.9
7.50999	11.1812	6.43309#19.2	45.4	13.9
14.0514	24.3119	13.2739#19.2	45.4	13.9
32.1028	85.0133	51.9491#21.1	58.1	13.9
32.1028	85.0133	51.9491#21.1	58.1	13.9
28.6792	64.2712	33.2177#21.1	72.7	13.9
24.6612	57.4339	31.1979#21.1	72.7	13.9
8.55529	15.0309	9.46625#21.1	72.7	13.9
8.55529	15.0309	9.46625#21.1	72.7	13.9
27.5531	33.7068	21.2007#23.0	81.8	16.2
27.5531	33.7068	21.2007#23.0	81.8	16.2
22.7142	29.5693	18.316#23.0	81.8	16.2
12.3448	28.2546	12.9443#25.0	87.2	20.9
15.7287	30.8377	13.849#25.0	87.2	20.9
15.7287	30.8377	13.849#26.9	89.0	25.5
31.0204	67.4938	29.2892#26.9	89.0	25.5
21.345	45.0082	27.8309#26.9	89.0	25.5
29.9948	101.309	44.7051#40.3	92.7	32.5
30.008	74.5074	29.3365#61.5	92.7	39.5
25.1869	56.1529	26.8134#61.5	92.7	39.5
26.9243	67.8319	38.9534#61.5	92.7	39.5
13.1749	18.0679	10.8179#61.5	92.7	39.5
21.2716	51.2051	30.6489#73.0	92.7	41.8
18.0546	23.3544	14.1584#73.0	92.7	41.8
24.3084	30.4673	18.6583#73.0	92.7	41.8
31.6569	52.4557	32.0287#80.7	94.5	46.5
31.6569	52.4557	32.0287#80.7	94.5	46.5
17.3504	23.4517	14.2459#90.3	92.7	44.1
29.929	85.5479	51.3682#90.3	92.7	44.1
33.8149	94.1434	53.9772#90.3	92.7	44.1
33.8149	94.1434	53.9772#94.2	92.7	44.1
32.1903	75.3429	47.321#94.2	92.7	44.1
29.9112	59.3921	36.6027#96.1	92.7	51.1
26.715	57.9303	35.5656#96.1	92.7	51.1
26.4054	59.6319	33.8905#96.1	92.7	51.1
18.9293	43.2632	21.9597#96.1	92.7	51.1
11.747	22.6558	11.0943#98.0	92.7	62.7
29.3854	54.5164	31.9864#98.0	92.7	62.7
27.408	46.5078	30.3392#98.0	92.7	62.7
22.7681	48.7544	29.8072#98.0	92.7	72.0
18.8259	22.6034	13.9391#98.0	92.7	72.0
15.1271	28.4503	19.8188#98.0	92.7	81.3
15.0307	27.1226	18.6411#98.0	92.7	81.3
15.0307	27.1226	18.6411#98.0	92.7	81.3
30.7435	57.583	39.9989#98.0	92.7	83.7
18.4643	32.0775	21.2476#98.0	92.7	83.7
34.1224	56.5553	36.1642#98.0	92.7	86.0
31.3706	60.483	35.6106#98.0	92.7	86.0
31.3706	60.483	35.6106#98.0	92.7	86.0
13.4663	17.8704	9.84913#98.0	90.9	86.0
16.072	41.1181	22.2368#98.0	90.9	86.0
23.1969	41.0078	25.7679#98.0	90.9	88.3
17.1575	33.6045	22.2642#98.0	90.9	88.3
17.1575	33.6045	22.2642#98.0	90.9	88.3
33.8393	88.132	54.0826#98.0	92.7	90.6
28.24	59.4954	30.2487#98.0	92.7	90.6
16.7891	57.8739	18.7906#98.0	92.7	90.6
33.773	73.645	43.7494#98.0	92.7	93.0
37.8875	86.0028	38.7005#98.0	92.7	93.0
17.979	55.474	24.9525#98.0	92.7	93.0
51.6634	135.298	74.2371#98.0	92.7	95.3
60.3801	137.064	83.63#98.0	92.7	95.3
28.4397	54.7074	39.1271#98.0	92.7	95.3
17.0062	29.0111	17.1214#98.0	94.5	95.3
17.0062	29.0111	17.1214#98.0	94.5	95.3
28.4082	56.626	40.795#98.0	94.5	97.6
37.1924	77.7657	55.4761#98.0	94.5	97.6
43.4019	110.27	67.9781#98.0	94.5	97.6
23.973	42.1286	26.1497#98.0	94.5	97.6
19.0209	50.3713	30.6312#98.0	94.5	97.6
19.0209	50.3713	30.6312#98.0	94.5	97.6
17.5861	33.0672	16.8911#98.0	94.5	97.6
6.37875	9.05404	4.68196#96.1	94.5	95.3
23.5032	42.9557	24.2429#96.1	94.5	95.3
36.0074	67.2319	42.3256#98.0	94.5	95.3
16.3081	33.4326	14.1468#98.0	94.5	95.3
12.7673	25.2209	12.1958#98.0	94.5	95.3
13.8221	31.5971	18.6534#98.0	94.5	95.3
15.3822	25.3263	16.3634#96.1	92.7	95.3
8.06015	16.0721	7.36335#94.2	92.7	93.0
10.4949	21.2	10.2678#94.2	92.7	93.0
10.4949	21.2	10.2678#94.2	92.7	93.0
18.4351	33.0705	17.3897#90.3	80.0	81.3
12.833	25.9517	16.3179#90.3	80.0	81.3
7.16807	14.1565	7.70275#73.0	47.2	46.5
12.8533	22.0239	12.5529#73.0	47.2	46.5
9.85635	18.3489	10.6176#73.0	47.2	46.5
16.6086	25.3705	13.3347#30.7	27.2	23.2
16.6086	25.3705	13.3347#30.7	27.2	23.2
12.285	20.4498	10.0975#30.7	27.2	23.2
11.4403	15.1626	9.25851#30.7	27.2	23.2
17.0385	23.9123	14.5859#11.5	21.8	18.6
17.0385	23.9123	14.5859#11.5	21.8	18.6
11.3737	14.653	8.97203#9.6	20.0	18.6
13.1217	19.2736	12.0402#9.6	20.0	18.6
12.5168	22.4121	13.678#9.6	20.0	18.6
13.3862	22.7349	14.7968#7.6	16.3	16.2
13.3862	22.7349	14.7968#7.6	16.3	16.2
11.9445	18.966	9.70861#7.6	16.3	16.2
12.4864	22.7435	10.6405#5.7	16.3	16.2
8.89305	18.3058	7.14532#5.7	16.3	16.2
16.4192	33.0107	16.8256#7.6	14.5	16.2
15.7226	41.2801	22.1151#7.6	14.5	16.2
18.6166	43.787	26.6014#7.6	14.5	16.2
9.8033	14.3601	8.37628#5.7	14.5	13.9
13.8322	23.8468	10.7693#5.7	14.5	13.9
14.6656	31.6545	19.8237#5.7	12.7	13.9
14.9395	37.0622	19.801#5.7	12.7	13.9
14.9395	37.0622	19.801#5.7	12.7	13.9
14.7293	39.6038	20.3006#5.7	12.7	13.9
7.4084	16.1464	6.07861#5.7	12.7	13.9
16.4819	25.188	12.7837#5.7	10.9	13.9
13.8675	18.1185	9.61634#5.7	10.9	13.9
19.8738	36.8328	16.5539#5.7	10.9	13.9
8.91461	13.0881	6.22874#5.7	12.7	13.9
8.19896	13.5964	7.51785#5.7	12.7	13.9
9.24	17.5168	10.1518#5.7	12.7	13.9
17.0735	22.8102	12.2178#5.7	10.9	13.9
17.0735	22.8102	12.2178#5.7	10.9	13.9
5.76839	9.69182	4.84576#5.7	10.9	13.9
11.3873	16.4785	8.43369#5.7	10.9	13.9
11.0787	17.0163	7.88051#5.7	10.9	13.9
9.30623	17.3774	7.4186#5.7	10.9	13.9
8.59055	21.2538	10.3884#5.7	10.9	13.9
7.8209	13.7296	7.46807#5.7	12.7	13.9
7.42149	13.7803	6.62808#5.7	12.7	13.9
10.6274	33.845	13.2417#5.7	12.7	13.9
23.2152	36.0324	20.1268#7.6	14.5	13.9
16.0968	21.3964	11.4236#7.6	14.5	13.9
16.1544	22.4398	13.2811#7.6	14.5	13.9
16.1544	22.4398	13.2811#11.5	14.5	13.9
30.8751	65.7049	35.2902#11.5	14.5	13.9
32.2193	60.1693	33.3188#30.7	21.8	16.2
24.2836	47.4209	33.9032#30.7	21.8	16.2
20.2748	41.5041	28.7073#30.7	21.8	16.2
28.3536	68.5527	40.2304#73.0	61.8	39.5
25.4625	45.4705	29.1081#73.0	61.8	39.5
29.1399	42.284	28.1936#78.8	74.5	60.4
27.4088	39.8251	24.8339#84.6	83.6	81.3
30.5166	44.2491	24.3398#84.6	83.6	81.3
13.3246	23.6	15.0067#84.6	83.6	81.3
13.3246	23.6	15.0067#88.4	87.2	88.3
16.277	34.7757	15.9337#88.4	87.2	88.3
16.7358	34.5132	15.4864#88.4	87.2	88.3
22.8319	41.1502	21.58#92.3	90.9	90.6
16.2967	46.8817	25.6076#92.3	90.9	90.6
16.2967	46.8817	25.6076#94.2	92.7	93.0
35.1244	82.389	49.6009#94.2	92.7	93.0
41.2178	91.4071	51.6345#94.2	92.7	93.0
24.6281	63.41	31.227#94.2	92.7	95.3
9.75431	28.9583	13.0836#94.2	92.7	95.3
14.6119	30.5192	14.0324#96.1	94.5	95.3
25.4447	32.8561	19.2485#96.1	94.5	95.3
19.5546	34.0637	16.213#96.1	94.5	95.3
42.2411	79.9263	56.9746#96.1	94.5	95.3
46.3919	78.091	52.6709#96.1	94.5	95.3
41.2463	68.1701	43.9245#96.1	94.5	95.3
56.6205	107.472	59.8532#96.1	94.5	95.3
57.4112	118.591	70.3995#96.1	94.5	95.3
23.3083	41.8506	27.3382#96.1	94.5	95.3
46.8032	87.8156	47.1688#96.1	94.5	95.3
42.8676	75.8225	45.742#96.1	94.5	95.3
42.8676	75.8225	45.742#98.0	96.3	97.6
20.9244	30.8869	17.033#98.0	96.3	97.6
20.9244	30.8869	17.033#98.0	96.3	95.3
55.3035	125.319	74.0553#98.0	96.3	95.3
55.3035	125.319	74.0553#98.0	96.3	97.6
22.43	51.5094	23.3963#98.0	96.3	97.6
33.4557	80.212	42.9986#98.0	96.3	97.6
24.5575	54.186	35.0093#98.0	96.3	97.6
14.5583	51.8685	20.2815#98.0	96.3	97.6
14.5583	51.8685	20.2815#98.0	96.3	97.6
19.092	40.444	26.266#98.0	96.3	97.6
19.092	40.444	26.266#98.0	96.3	95.3
27.4521	56.8531	40.0521#98.0	96.3	95.3
37.2914	101.377	63.5466#98.0	96.3	95.3
18.2635	43.9146	26.5532#98.0	96.3	97.6
28.3647	74.2597	45.4136#98.0	96.3	97.6
21.978	47.8043	29.1826#98.0	96.3	97.6
24.9567	74.6697	41.9208#98.0	96.3	97.6
31.3998	79.6871	41.0489#98.0	96.3	97.6
31.3998	79.6871	41.0489#98.0	96.3	97.6
38.5531	94.7319	48.1886#98.0	96.3	97.6
40.5795	71.8191	47.3186#98.0	96.3	97.6
24.6081	47.9742	21.0011#98.0	96.3	95.3
24.4538	56.6635	23.1949#98.0	96.3	95.3
20.0391	39.7617	17.7145#98.0	96.3	95.3
33.3195	71.2285	48.7682#98.0	96.3	95.3
33.3195	71.2285	48.7682#98.0	96.3	97.6
23.5431	38.9857	25.3692#98.0	96.3	97.6
22.6618	34.931	19.9055#98.0	96.3	97.6
29.7973	41.1449	23.4941#98.0	96.3	97.6
21.0029	43.7484	24.2513#98.0	96.3	95.3
15.9242	47.3023	24.8802#98.0	96.3	95.3
20.4614	40.8451	17.8516#98.0	96.3	97.6
5.90615	15.9566	4.92337#98.0	96.3	97.6
15.5607	27.6326	15.7061#98.0	96.3	97.6
12.671	25.0015	16.6066#98.0	96.3	95.3
12.671	25.0015	16.6066#98.0	96.3	95.3
19.6614	67.6622	31.7868#98.0	96.3	95.3
18.7299	91.582	26.0007#98.0	96.3	95.3
9.70002	39.2307	11.3057#98.0	96.3	95.3
9.70002	39.2307	11.3057#98.0	96.3	97.6
33.4348	111.802	42.0428#98.0	96.3	97.6
42.4162	101.525	42.2121#98.0	96.3	97.6
32.6405	51.3442	29.2644#98.0	96.3	97.6
28.3226	54.9438	33.9063#98.0	96.3	97.6
28.3226	54.9438	33.9063#98.0	96.3	97.6
24.7892	37.5977	21.3278#98.0	96.3	97.6
24.3167	40.5569	24.9342#98.0	96.3	97.6
31.4436	66.6703	46.7946#98.0	96.3	97.6
38.198	104.754	63.958#98.0	96.3	97.6
26.8091	62.8507	38.1363#98.0	96.3	97.6
21.9619	47.115	30.5847#98.0	96.3	97.6
20.6822	48.9698	23.0808#98.0	96.3	97.6
20.6822	48.9698	23.0808#98.0	96.3	97.6
36.5313	93.6482	56.5025#98.0	96.3	97.6
22.1804	50.2298	27.5183#98.0	96.3	97.6
13.0184	21.1469	12.8317#98.0	96.3	97.6
27.3434	50.8097	31.854#98.0	96.3	97.6
27.3434	50.8097	31.854#98.0	96.3	97.6
9.02507	12.378	6.62133#98.0	96.3	97.6
9.02507	12.378	6.62133#98.0	96.3	97.6
16.1845	28.9005	19.2527#98.0	96.3	97.6
29.0373	55.9066	35.4226#98.0	96.3	97.6
25.1155	40.4265	24.6651#98.0	96.3	97.6
44.5523	81.5457	55.6474#98.0	96.3	97.6
38.8116	74.5289	50.0628#98.0	96.3	97.6
14.9078	61.8376	21.2217#98.0	96.3	97.6
15.95	43.3129	17.5339#98.0	96.3	97.6
31.8756	85.3294	47.3745#98.0	96.3	97.6
38.7853	84.6282	50.6347#98.0	96.3	97.6
23.0587	33.0103	17.5853#98.0	96.3	97.6
18.1575	52.5917	22.8594#98.0	96.3	97.6
33.867	55.1469	34.7931#98.0	96.3	97.6
33.867	55.1469	34.7931#98.0	96.3	97.6
25.8434	45.0525	29.9672#98.0	96.3	97.6
19.3336	40.3083	23.4991#98.0	96.3	97.6
13.3006	22.6473	12.7151#98.0	94.5	97.6
16.5799	20.679	12.4112#98.0	94.5	97.6
20.9123	32.1358	19.4153#98.0	94.5	97.6
31.3199	55.104	34.2245#98.0	96.3	97.6
24.2572	46.1016	32.3976#98.0	96.3	97.6
25.2575	57.4247	34.1928#98.0	94.5	97.6
17.1693	46.6584	26.5833#98.0	94.5	97.6
13.9123	38.1738	18.2476#98.0	94.5	97.6
15.1752	22.6544	12.6586#98.0	94.5	95.3
15.1752	22.6544	12.6586#98.0	94.5	95.3
20.4317	28.878	16.2906#98.0	94.5	95.3
17.7864	31.7448	18.1151#98.0	94.5	97.6
17.7864	31.7448	18.1151#98.0	94.5	97.6
20.6626	40.0715	28.5552#98.0	94.5	95.3
20.6626	40.0715	28.5552#98.0	94.5	95.3
34.271	67.6879	42.5828#98.0	94.5	95.3
36.0698	57.7833	34.8167#96.1	94.5	95.3
10.3394	19.2638	11.9967#96.1	94.5	95.3
18.4797	36.1153	21.1511#96.1	94.5	95.3
22.8915	42.1688	24.308#96.1	94.5	95.3
22.8915	42.1688	24.308#96.1	94.5	95.3
29.2789	45.897	28.1695#94.2	92.7	95.3
25.1815	41.8783	26.9645#94.2	92.7	95.3
25.1815	41.8783	26.9645#94.2	92.7	95.3
22.1033	32.7523	19.2676#94.2	92.7	95.3
28.2976	72.662	44.4571#94.2	92.7	93.0
22.4087	34.7928	20.982#94.2	92.7	93.0
35.2196	75.1083	51.7613#92.3	90.9	93.0
35.2196	75.1083	51.7613#92.3	90.9	93.0
40.4336	80.3726	55.6142#92.3	90.9	93.0
34.7486	42.9401	27.2558#92.3	90.9	90.6
34.7486	42.9401	27.2558#92.3	90.9	90.6
37.6078	65.0559	38.1902#90.3	90.9	90.6
10.5483	19.1916	12.4661#90.3	90.9	90.6
18.5512	42.3489	19.8239#90.3	90.9	90.6
16.1729	28.7978	14.2801#88.4	89.0	90.6
16.1729	28.7978	14.2801#88.4	89.0	90.6
16.1729	28.7978	14.2801#88.4	89.0	90.6
24.3423	34.7656	19.0488#88.4	87.2	88.3
26.2558	32.0563	20.1213#88.4	87.2	88.3
22.6802	39.6296	22.5983#88.4	87.2	88.3
14.0576	24.5542	11.3715#88.4	83.6	83.7
14.0576	24.5542	11.3715#88.4	83.6	83.7
17.2478	25.0202	13.6768#88.4	83.6	83.7
20.1928	43.438	26.4495#84.6	74.5	76.7
22.1983	55.2441	33.2176#84.6	74.5	76.7
22.2544	43.2587	28.9211#80.7	72.7	74.4
22.2544	43.2587	28.9211#80.7	72.7	74.4
23.3218	55.5974	29.3203#80.7	72.7	74.4
14.72	33.6196	21.2781#75.0	72.7	74.4
12.0065	32.3556	16.6419#75.0	72.7	74.4
13.0935	26.053	12.18#65.3	72.7	74.4
10.5323	17.6633	8.06052#65.3	72.7	74.4
10.5323	17.6633	8.06052#65.3	72.7	74.4
18.0124	30.1339	14.2099#36.5	65.4	72.0
11.3163	23.1525	13.5784#36.5	65.4	72.0
11.3163	23.1525	13.5784#36.5	65.4	72.0
23.1472	37.6657	24.0111#36.5	65.4	72.0
30.4063	46.5906	27.2234#13.4	45.4	60.4
15.6218	21.4359	11.2917#9.6	38.1	55.8
16.3325	30.0935	19.7799#9.6	38.1	55.8
11.3239	27.8187	14.6792#9.6	38.1	55.8
10.3994	23.0286	8.71893#9.6	38.1	55.8
10.5035	16.3999	8.14929#7.6	30.9	44.1
6.98553	19.272	8.03168#7.6	30.9	44.1
15.1728	27.2661	12.0152#7.6	23.6	25.5
20.7921	32.7323	17.2285#7.6	23.6	25.5
16.3556	35.8716	19.9602#7.6	23.6	25.5
13.815	28.2839	13.875#7.6	18.1	16.2
21.5825	30.7889	16.5326#7.6	18.1	16.2
9.66649	19.4801	11.2399#5.7	16.3	11.6
15.6548	27.6213	17.9039#5.7	16.3	11.6
11.723	21.8049	10.0498#5.7	16.3	11.6
11.723	21.8049	10.0498#5.7	16.3	11.6
18.9282	24.1849	15.1532#5.7	14.5	11.6
17.6517	21.1988	13.0394#5.7	14.5	11.6
6.65425	16.2687	6.68471#5.7	14.5	11.6
11.4525	26.3485	14.5224#5.7	12.7	9.3
15.5713	22.432	11.6655#5.7	12.7	9.3
22.7022	33.0634	17.187#5.7	12.7	9.3
25.5306	36.8292	19.4257#5.7	12.7	9.3
18.0362	33.5792	23.4273#5.7	12.7	9.3
15.386	25.697	12.3148#5.7	10.9	9.3
14.9595	30.8913	17.0871#5.7	10.9	9.3
15.1395	33.3434	18.7965#5.7	10.9	9.3
8.42113	20.0029	10.639#3.8	10.9	9.3
18.1636	39.3588	25.9818#3.8	10.9	9.3
20.7821	38.0083	17.7181#5.7	10.9	6.9
9.3126	18.8299	11.6399#5.7	10.9	6.9
15.618	22.2936	14.2935#5.7	10.9	6.9
10.0963	23.0041	11.202#3.8	10.9	6.9
16.2649	20.2021	12.1974#3.8	10.9	6.9
16.2649	20.2021	12.1974#3.8	10.9	6.9
18.4376	22.3866	13.5861#3.8	10.9	6.9
12.2011	22.2558	14.504#3.8	10.9	6.9
8.09877	12.4709	5.69857#5.7	10.9	9.3
8.98136	13.2427	8.22627#5.7	10.9	9.3
16.2479	22.5313	13.7949#5.7	10.9	9.3
14.8083	22.3268	11.3929#3.8	10.9	9.3
17.8038	32.6429	18.0178#3.8	10.9	6.9
17.8038	32.6429	18.0178#3.8	10.9	6.9
11.6167	18.4844	11.0558#3.8	10.9	6.9
13.1241	25.4044	13.0595#5.7	10.9	9.3
21.6452	42.1716	30.108#5.7	10.9	9.3
23.2873	54.7442	32.1935#5.7	10.9	9.3
16.6427	30.1476	13.473#7.6	12.7	9.3
13.1154	34.2305	14.8545#7.6	12.7	9.3
19.9776	59.034	32.5361#7.6	12.7	9.3
19.9776	59.034	32.5361#13.4	20.0	11.6
22.708	43.8972	26.9099#13.4	20.0	11.6
24.2417	40.9689	23.248#13.4	20.0	11.6
26.0157	45.0553	22.4532#55.7	49.0	13.9
39.67	87.9841	58.9677#55.7	49.0	13.9
36.4383	59.711	36.9054#76.9	81.8	23.2
55.6215	130.128	68.2914#76.9	81.8	23.2
61.6336	105.858	66.449#86.5	90.9	51.1
48.2576	112.382	61.7205#86.5	90.9	51.1
48.2576	112.382	61.7205#92.3	94.5	83.7
23.3977	84.3381	38.7502#92.3	94.5	83.7
24.1691	96.9781	40.0414#92.3	94.5	83.7
8.92858	39.6422	10.9526#94.2	94.5	90.6
28.0196	75.4561	33.3933#94.2	94.5	90.6
27.7829	47.6803	32.6788#94.2	94.5	90.6
27.7829	47.6803	32.6788#96.1	96.3	93.0
28.8236	47.0641	32.413#96.1	96.3	95.3
27.4222	49.4949	31.0005#96.1	96.3	95.3
25.6323	44.4579	26.4966#96.1	96.3	95.3
21.5275	36.4293	21.9211#96.1	96.3	95.3
31.095	47.9008	25.8639#96.1	96.3	95.3
25.0265	33.2516	20.3609#96.1	96.3	95.3
35.3977	57.488	28.637#96.1	96.3	95.3
12.1452	25.9296	15.3058#96.1	96.3	95.3
42.8354	61.856	33.4927#96.1	94.5	93.0
31.0791	79.6443	50.87#96.1	94.5	93.0
16.4223	26.2412	12.8668#94.2	94.5	93.0
20.7516	41.0697	21.0534#94.2	94.5	93.0
36.1669	71.1375	31.7182#94.2	94.5	93.0
24.6083	56.4378	29.2989#94.2	94.5	93.0
15.6705	31.833	14.8911#94.2	94.5	93.0
22.1414	53.2424	24.6529#94.2	94.5	93.0
33.5249	57.4053	33.4474#94.2	94.5	93.0
25.0927	35.3443	19.3618#94.2	94.5	93.0
20.5695	31.428	18.4293#94.2	94.5	93.0
20.5695	31.428	18.4293#94.2	94.5	93.0
25.3948	47.0747	32.5736#94.2	94.5	93.0
23.3891	48.3237	33.6839#94.2	94.5	93.0
17.9862	46.0014	27.6759#94.2	94.5	93.0
24.763	42.8756	28.407#94.2	94.5	93.0
24.763	42.8756	28.407#94.2	94.5	93.0
20.3285	30.4442	20.3177#94.2	94.5	93.0
26.0098	39.2332	26.3949#94.2	94.5	93.0
13.2027	24.4853	14.6876#94.2	94.5	93.0
22.8264	32.6541	20.2225#92.3	94.5	93.0
20.335	32.7259	21.3997#92.3	94.5	93.0
14.3987	28.4622	15.5528#92.3	94.5	93.0
14.3987	28.4622	15.5528#90.3	90.9	90.6
22.0378	34.774	18.8485#90.3	90.9	90.6
8.37327	15.6026	9.22826#86.5	81.8	86.0
14.726	23.1818	12.04#86.5	81.8	86.0
12.8977	22.2355	13.1252#86.5	81.8	86.0
12.8977	22.2355	13.1252#69.2	43.6	55.8
10.6185	17.3461	9.81603#69.2	43.6	55.8
16.0818	28.0154	16.3032#15.3	23.6	20.9
16.0818	28.0154	16.3032#15.3	23.6	20.9
10.7619	23.9876	9.29191#15.3	23.6	20.9
15.1478	30.2035	15.12#15.3	23.6	20.9
17.8179	29.6052	14.5679#7.6	18.1	16.2
11.2999	23.2709	9.16619#7.6	18.1	16.2
24.4455	45.163	23.0707#5.7	14.5	13.9
16.7276	32.9262	22.4024#5.7	14.5	13.9
16.6811	27.9193	18.3422#5.7	14.5	13.9
10.1552	19.8633	12.6498#5.7	14.5	11.6
10.1552	19.8633	12.6498#5.7	14.5	11.6
9.8505	15.5427	9.06689#5.7	14.5	11.6
11.2064	27.006	12.152#5.7	14.5	11.6
8.00271	12.995	8.53329#5.7	14.5	11.6
9.79825	17.3606	11.5087#5.7	14.5	11.6
9.79825	17.3606	11.5087#5.7	14.5	11.6
14.4164	24.7276	13.6636#5.7	14.5	11.6
15.906	23.509	11.7136#5.7	14.5	11.6
16.2326	27.1243	13.9265#5.7	14.5	11.6
12.8049	22.5973	10.8104#5.7	14.5	11.6
9.70669	23.0399	12.5703#5.7	14.5	11.6
9.70669	23.0399	12.5703#5.7	14.5	11.6
8.94877	10.0369	5.72073#5.7	14.5	11.6
8.81509	16.1275	10.2743#5.7	14.5	11.6
11.7199	14.5624	7.91848#5.7	14.5	11.6
11.946	14.362	8.1593#5.7	14.5	11.6
17.9761	30.5286	16.2004#5.7	14.5	11.6
17.9761	30.5286	16.2004#5.7	14.5	11.6
12.9456	22.636	11.6664#5.7	14.5	11.6
12.0836	20.2026	11.8116#5.7	14.5	11.6
11.8755	21.0536	13.4029#5.7	14.5	11.6
25.1466	42.7087	27.8317#5.7	14.5	11.6
13.3266	28.6148	18.3907#5.7	14.5	11.6
17.9629	38.7634	25.7982#5.7	14.5	11.6
9.86984	23.0623	13.5463#5.7	14.5	11.6
12.3683	27.7718	14.4418#5.7	14.5	11.6
10.9337	21.5622	10.388#5.7	14.5	11.6
13.4491	20.9617	12.604#5.7	14.5	11.6
13.4491	20.9617	12.604#5.7	14.5	11.6
16.5432	26.5458	16.0682#5.7	14.5	11.6
7.69347	16.2841	9.12844#5.7	14.5	11.6
9.64022	15.4546	9.95932#5.7	12.7	11.6
22.1795	28.7147	16.5929#5.7	12.7	11.6
15.3951	31.5802	20.4576#5.7	14.5	11.6
15.6084	31.9472	18.6056#5.7	14.5	11.6
10.7233	23.2607	13.1409#5.7	14.5	11.6
19.9996	28.1851	15.3392#5.7	14.5	11.6
8.43796	13.2518	6.3525#5.7	12.7	11.6
9.07491	14.8217	8.42516#5.7	12.7	11.6
9.07491	14.8217	8.42516#5.7	12.7	11.6
8.67413	15.39	9.92906#5.7	12.7	11.6
9.48534	21.8538	10.0266#5.7	12.7	9.3
11.0989	25.872	10.9547#5.7	12.7	9.3
5.92829	11.9852	5.7195#5.7	12.7	9.3
14.2057	24.8917	15.5763#5.7	12.7	11.6
8.89987	19.886	10.6313#5.7	12.7	11.6
9.47431	19.5924	11.7167#5.7	12.7	11.6
14.4083	22.7493	13.3553#5.7	12.7	9.3
14.4083	22.7493	13.3553#5.7	12.7	9.3
12.8617	29.8518	17.2797#5.7	12.7	11.6
12.7787	29.0584	16.6845#5.7	12.7	11.6
11.5837	14.1609	8.33428#5.7	12.7	11.6
18.0459	29.2609	14.1364#5.7	12.7	9.3
18.0459	29.2609	14.1364#5.7	12.7	9.3
7.848	12.4295	7.64575#5.7	12.7	9.3
7.21978	13.3256	7.98391#5.7	12.7	9.3
13.4504	16.295	9.40903#5.7	12.7	9.3
8.49492	18.6758	9.9161#7.6	12.7	11.6
8.50862	17.3886	10.13#7.6	12.7	11.6
9.30423	19.8362	11.3038#5.7	12.7	9.3
10.0645	20.2475	11.6262#5.7	12.7	9.3
12.5314	23.1525	10.3128#5.7	12.7	9.3
15.4982	27.9223	17.8596#5.7	12.7	9.3
17.1232	26.7851	16.5988#5.7	12.7	9.3
17.1232	26.7851	16.5988#5.7	12.7	9.3
11.7661	17.8384	10.9168#5.7	12.7	9.3
5.82461	10.0692	5.68639#7.6	12.7	11.6
11.799	14.2181	8.33604#7.6	12.7	11.6
7.76864	17.8724	8.58631#7.6	12.7	11.6
10.9842	20.7834	13.7338#7.6	12.7	11.6
10.7331	21.5937	13.5294#7.6	12.7	11.6
9.18589	23.4639	9.47372#7.6	12.7	11.6
9.18589	23.4639	9.47372#7.6	12.7	9.3
10.622	21.7514	10.3532#7.6	12.7	9.3
11.7247	24.3615	12.2866#7.6	12.7	9.3
9.78292	15.2268	9.59509#7.6	12.7	9.3
13.4641	28.9083	14.7362#7.6	12.7	9.3
13.5029	16.575	9.42967#7.6	12.7	9.3
21.3725	28.769	16.268#7.6	12.7	9.3
22.7751	32.9081	17.871#7.6	12.7	9.3
26.7722	33.2694	20.5188#7.6	12.7	11.6
26.7722	33.2694	20.5188#7.6	12.7	11.6
12.7718	20.5188	9.96864#7.6	12.7	9.3
10.3961	22.7781	9.20868#7.6	12.7	9.3
9.82917	19.1465	9.00389#7.6	12.7	9.3
11.8437	16.6446	9.52727#7.6	12.7	11.6
11.8437	16.6446	9.52727#7.6	12.7	11.6
23.4757	30.9772	18.6553#7.6	12.7	11.6
23.4757	30.9772	18.6553#7.6	12.7	9.3
21.4343	33.246	19.5812#7.6	12.7	9.3
9.50208	16.4511	9.32732#7.6	12.7	9.3
12.585	23.5091	13.6469#7.6	12.7	9.3
12.585	23.5091	13.6469#7.6	12.7	9.3
16.1272	29.0454	16.8044#7.6	12.7	9.3
12.5454	21.4557	12.0348#7.6	12.7	11.6
11.4693	20.1892	11.3557#7.6	12.7	11.6
15.0725	34.6222	19.3216#7.6	12.7	11.6
13.6254	26.6464	16.0553#7.6	12.7	11.6
10.2161	21.2761	12.7292#7.6	12.7	11.6
6.90396	11.9683	5.57845#7.6	12.7	11.6
6.90396	11.9683	5.57845#7.6	12.7	9.3
7.25387	11.9956	5.84319#7.6	12.7	9.3
12.0393	18.6792	8.75784#7.6	12.7	9.3
11.608	17.7537	9.6946#7.6	12.7	9.3
7.72166	16.4273	9.43559#7.6	12.7	9.3
9.75134	13.7471	7.29729#7.6	12.7	9.3
9.75134	13.7471	7.29729#7.6	12.7	9.3
16.7623	29.0242	17.6099#7.6	12.7	9.3
16.8721	27.1358	15.5471#7.6	12.7	9.3
11.0026	21.2479	11.9217#7.6	12.7	9.3
7.59521	11.4545	6.32097#7.6	12.7	9.3
7.59521	11.4545	6.32097#7.6	12.7	11.6
11.3597	18.1729	12.1108#7.6	12.7	11.6
11.4841	17.3631	10.6129#7.6	12.7	11.6
13.3187	17.3751	9.16464#7.6	12.7	11.6
13.3187	17.3751	9.16464#7.6	12.7	11.6
12.678	27.7965	12.6309#7.6	12.7	9.3
11.9038	22.7847	11.499#7.6	12.7	9.3
13.544	17.9268	9.59886#7.6	12.7	9.3
10.773	20.827	13.5553#7.6	12.7	9.3
10.2667	13.6031	7.60553#7.6	12.7	9.3
12.005	20.7292	11.2086#7.6	12.7	11.6
14.1466	24.4443	14.598#7.6	12.7	11.6
11.962	23.7202	14.0942#7.6	12.7	11.6
11.962	23.7202	14.0942#7.6	12.7	11.6
11.0038	20.6737	13.5148#7.6	12.7	11.6
12.093	24.611	15.9789#7.6	12.7	11.6
13.4276	30.6598	18.9673#7.6	12.7	9.3
11.1521	24.2259	14.9498#7.6	12.7	9.3
9.91813	20.4898	12.7205#7.6	12.7	9.3
7.41796	14.2606	7.94638#7.6	12.7	9.3
7.41796	14.2606	7.94638#7.6	12.7	9.3
7.03002	11.0349	4.90328#7.6	12.7	11.6
10.1115	15.1359	8.17388#7.6	12.7	11.6
9.69442	19.6284	9.06169#7.6	12.7	11.6
10.1555	21.3341	9.98633#7.6	12.7	9.3
14.3688	27.7969	14.5251#7.6	12.7	9.3
14.3688	27.7969	14.5251#7.6	12.7	9.3
9.70475	16.596	8.88137#7.6	12.7	9.3
6.0977	7.59228	4.0377#7.6	12.7	9.3
16.0331	23.6393	13.5624#7.6	12.7	11.6
7.60294	16.9937	9.09255#7.6	12.7	11.6
7.60294	16.9937	9.09255#7.6	12.7	9.3
8.63325	19.4276	11.078#7.6	12.7	9.3
15.684	30.7931	18.6865#7.6	12.7	9.3
19.2151	26.006	14.0237#7.6	12.7	9.3
10.4726	17.2688	8.45777#7.6	12.7	11.6
12.2538	25.6153	11.3673#7.6	12.7	11.6
24.0603	38.614	19.3155#7.6	12.7	11.6
11.3139	21.1723	11.615#7.6	12.7	11.6
11.7073	23.608	11.3152#7.6	12.7	11.6
13.6085	22.7304	12.0019#7.6	12.7	9.3
9.98568	15.2486	7.74005#7.6	12.7	9.3
9.98568	15.2486	7.74005#7.6	12.7	9.3
7.25667	14.6445	7.5376#7.6	12.7	9.3
12.3242	20.0435	9.81853#7.6	12.7	9.3
13.0407	20.1272	10.4855#7.6	12.7	9.3
10.389	16.2502	9.59359#7.6	12.7	11.6
16.016	20.7683	12.3364#7.6	12.7	11.6
9.85771	16.4599	7.90637#7.6	12.7	11.6
11.6495	18.8328	11.6248#7.6	12.7	11.6
15.631	30.3819	20.1866#7.6	12.7	11.6
15.631	30.3819	20.1866#7.6	12.7	11.6
17.6553	27.5442	16.911#7.6	12.7	11.6
8.25618	14.2229	8.04494#7.6	12.7	11.6
12.6589	27.5409	17.4551#7.6	12.7	11.6
16.433	21.883	11.697#7.6	12.7	11.6
16.433	21.883	11.697#7.6	12.7	11.6
12.0016	19.4412	10.6863#7.6	12.7	11.6
10.5795	17.9222	10.4277#7.6	12.7	11.6
9.96443	15.1514	8.20797#7.6	14.5	9.3
10.6716	23.7567	13.0276#7.6	14.5	9.3
9.21198	12.8783	6.79945#7.6	14.5	9.3
9.21198	12.8783	6.79945#7.6	14.5	9.3
11.859	16.4195	8.2987#7.6	14.5	9.3
15.9549	32.7389	18.5337#7.6	14.5	9.3
11.6362	19.2963	9.93606#7.6	12.7	11.6
16.2448	26.0444	15.4261#7.6	12.7	11.6
16.2448	26.0444	15.4261#7.6	12.7	9.3
13.2383	21.1571	12.5059#7.6	12.7	9.3
19.8742	28.8986	17.2156#7.6	12.7	9.3
9.35688	18.9615	7.34941#7.6	14.5	11.6
16.7111	23.4636	13.9757#7.6	14.5	11.6
14.3054	24.9387	14.8266#7.6	14.5	11.6
19.6609	27.2246	15.7429#7.6	12.7	11.6
17.8358	29.0203	17.6874#7.6	12.7	11.6
14.4934	22.8331	12.6483#7.6	12.7	11.6
12.0529	29.604	16.4086#7.6	12.7	11.6
9.39778	23.2568	11.4537#7.6	12.7	11.6
17.9613	31.9619	16.4937#7.6	12.7	11.6
10.5851	17.6649	7.93656#7.6	12.7	11.6
11.7213	20.5671	10.119#7.6	12.7	9.3
9.67582	20.2581	11.545#7.6	12.7	9.3
11.2016	23.894	14.2056#7.6	12.7	9.3
14.5079	26.113	14.5789#7.6	12.7	9.3
8.22249	13.6867	8.56489#7.6	12.7	9.3
8.22249	13.6867	8.56489#7.6	12.7	9.3
10.294	20.588	12.8278#7.6	12.7	9.3
8.70615	20.9204	11.3346#7.6	12.7	9.3
12.7969	17.9519	10.4589#7.6	12.7	11.6
11.7987	25.4804	15.9635#7.6	12.7	11.6
8.04575	15.0875	9.1198#7.6	12.7	11.6
11.788	16.904	9.86016#7.6	12.7	11.6
6.71291	12.8561	5.81001#7.6	12.7	11.6
17.4327	27.4272	15.2667#7.6	12.7	11.6
11.1203	20.6955	9.28915#7.6	12.7	11.6
7.8642	18.6808	8.63911#7.6	12.7	11.6
7.8642	18.6808	8.63911#7.6	12.7	11.6
22.0657	34.4141	20.4457#7.6	12.7	9.3
12.2809	21.8363	11.2949#7.6	12.7	9.3
16.1993	22.8903	14.8922#7.6	12.7	11.6
9.6779	12.8881	7.89772#7.6	12.7	11.6
13.2835	17.1417	9.15569#7.6	12.7	11.6
9.97576	12.4703	6.66781#7.6	12.7	11.6
10.2862	17.5879	11.2288#7.6	12.7	11.6
13.2433	19.9191	12.0054#7.6	12.7	9.3
11.4148	17.8204	10.8364#7.6	12.7	9.3
13.2498	21.1543	12.5586#7.6	12.7	9.3
13.2498	21.1543	12.5586#7.6	12.7	9.3
8.63748	14.7912	7.78138#7.6	12.7	9.3
7.48662	14.3705	6.55345#7.6	12.7	9.3
8.04384	12.6057	7.14611#7.6	12.7	9.3
9.38139	12.6455	6.9193#7.6	12.7	9.3
19.1553	33.5898	17.1724#7.6	12.7	9.3
11.5665	24.167	14.4974#7.6	12.7	11.6
10.5012	20.586	11.6688#7.6	12.7	11.6
9.612	17.3934	9.01932#7.6	12.7	11.6
15.1361	20.9131	10.9885#7.6	12.7	9.3
7.67752	14.6231	6.39843#7.6	12.7	9.3
7.67752	14.6231	6.39843#7.6	12.7	9.3
6.2579	11.854	6.28736#7.6	12.7	9.3
8.71562	13.4048	6.40944#7.6	12.7	9.3
6.53842	14.1816	6.8908#7.6	12.7	9.3
7.56908	9.73354	4.94771#7.6	12.7	9.3
8.61086	10.7953	6.14734#7.6	12.7	9.3
9.4206	12.4279	7.60913#7.6	12.7	9.3
8.58917	19.5877	10.3303#7.6	12.7	11.6
6.62022	10.3056	5.77148#7.6	12.7	11.6
6.62022	10.3056	5.77148#7.6	14.5	11.6
8.44097	12.4993	6.85735#7.6	14.5	11.6
17.4071	27.6773	15.4391#7.6	14.5	11.6
17.4071	27.6773	15.4391#7.6	12.7	11.6
9.06035	14.477	6.97882#7.6	12.7	11.6
14.5024	26.6395	14.1568#7.6	12.7	11.6
25.6696	36.3839	21.5899#7.6	12.7	11.6
11.8716	15.8358	9.24441#7.6	14.5	9.3
13.2025	20.3495	12.6286#7.6	14.5	9.3
11.5601	15.057	8.54934#7.6	14.5	11.6
13.7412	22.6373	10.3832#7.6	14.5	11.6
9.28962	18.8199	8.0786#7.6	12.7	9.3
11.9183	24.595	9.81587#7.6	12.7	9.3
11.9183	24.595	9.81587#7.6	12.7	9.3
9.3091	19.3118	7.79457#9.6	14.5	9.3
9.8086	21.2927	12.3654#9.6	14.5	9.3
18.3925	37.6683	22.7622#9.6	14.5	9.3
10.9979	18.6553	9.78798#11.5	14.5	11.6
10.9979	18.6553	9.78798#11.5	14.5	11.6
14.5076	27.513	12.0068#11.5	14.5	11.6
22.9115	27.8014	17.3386#13.4	18.1	11.6
22.5745	32.6307	18.6403#15.3	23.6	11.6
11.0333	24.4513	13.5952#15.3	23.6	11.6
11.0333	24.4513	13.5952#15.3	23.6	11.6
16.6012	32.6775	21.7157#15.3	23.6	11.6
12.3944	25.6133	16.5099#19.2	54.5	11.6
21.3415	30.5738	19.188#19.2	54.5	11.6
14.6934	22.9506	13.0456#25.0	78.1	13.9
14.0823	20.6618	13.0773#25.0	78.1	13.9
18.746	25.4808	16.3857#25.0	78.1	13.9
23.1018	33.1658	21.9275#28.8	81.8	13.9
23.1018	33.1658	21.9275#28.8	81.8	13.9
23.8539	35.39	21.5815#44.2	89.0	13.9
17.5072	21.7069	13.5176#44.2	89.0	13.9
11.6186	24.5277	14.251#44.2	89.0	13.9
11.6186	24.5277	14.251#44.2	89.0	13.9
35.9205	56.139	32.2337#48.0	89.0	13.9
23.2878	40.4442	23.0837#48.0	89.0	13.9
22.7608	37.4494	21.1534#48.0	89.0	13.9
22.7608	37.4494	21.1534#53.8	89.0	13.9
21.9196	33.3472	18.5284#53.8	89.0	13.9
21.3305	33.5379	19.272#57.6	89.0	13.9
8.15187	20.6992	9.52503#57.6	89.0	13.9
18.3872	52.4609	21.5551#57.6	89.0	13.9
27.7085	65.1691	30.1432#59.6	87.2	13.9
25.9592	61.2309	27.5104#59.6	87.2	13.9
11.5348	33.0781	12.9858#61.5	87.2	13.9
11.5348	33.0781	12.9858#61.5	87.2	13.9
9.03785	20.9055	10.4683#61.5	87.2	13.9
17.5143	41.2753	24.5552#61.5	87.2	13.9
12.0915	33.7418	16.5072#63.4	87.2	13.9
13.3026	27.5031	17.0882#63.4	87.2	13.9
18.6698	32.8688	22.86#63.4	87.2	13.9
17.1279	26.1628	16.0327#65.3	89.0	13.9
29.7738	40.2378	25.2555#65.3	89.0	13.9
26.4808	37.5211	21.2258#65.3	89.0	13.9
25.8975	38.0492	23.6639#65.3	89.0	13.9
21.8446	36.123	22.2155#65.3	89.0	13.9
14.2349	32.5397	19.0467#67.3	89.0	13.9
14.2349	32.5397	19.0467#67.3	89.0	13.9
16.5034	24.3115	13.3136#67.3	89.0	13.9
15.6117	31.8695	21.4507#67.3	89.0	13.9
19.8294	32.9465	21.1125#67.3	89.0	13.9
19.8294	32.9465	21.1125#67.3	89.0	13.9
22.338	41.7175	24.9746#67.3	89.0	13.9
22.338	41.7175	24.9746#67.3	89.0	13.9
15.9154	22.1961	11.882#65.3	90.9	16.2
17.9553	22.756	13.438#65.3	90.9	16.2
31.4664	44.4319	25.3971#65.3	90.9	16.2
27.9058	41.2611	22.7528#67.3	90.9	16.2
27.9058	41.2611	22.7528#67.3	90.9	16.2
24.6014	37.1572	20.0211#67.3	90.9	16.2
25.3733	46.1793	28.2163#67.3	90.9	16.2
15.9787	36.1399	21.788#67.3	90.9	16.2
11.5727	23.5687	10.9536#67.3	90.9	16.2
12.9303	31.7846	17.1268#65.3	90.9	16.2
15.0803	31.4102	17.2002#65.3	90.9	16.2
13.0037	25.4488	12.9256#65.3	90.9	16.2
13.0037	25.4488	12.9256#65.3	90.9	16.2
11.565	22.5379	11.2038#65.3	90.9	16.2
9.75399	18.1787	10.2796#65.3	90.9	16.2
14.883	30.6738	19.6273#65.3	90.9	16.2
9.48461	16.7296	10.2541#65.3	90.9	16.2
9.48461	16.7296	10.2541#61.5	87.2	16.2
7.70135	18.749	9.4151#61.5	87.2	16.2
5.7875	9.01892	4.55543#61.5	87.2	16.2
5.7875	9.01892	4.55543#53.8	80.0	13.9
17.5042	37.4597	21.0486#34.6	54.5	13.9
8.32391	18.9233	7.79683#34.6	54.5	13.9
11.6155	20.1099	9.50692#34.6	54.5	13.9
16.0965	23.9245	12.7835#34.6	54.5	13.9
16.0965	23.9245	12.7835#26.9	30.9	13.9
11.1328	17.611	9.48357#26.9	30.9	13.9
11.1328	17.611	9.48357#21.1	21.8	11.6
7.27477	15.0993	7.20375#21.1	21.8	11.6
10.0551	25.0058	13.2494#21.1	21.8	11.6
11.0969	21.2935	10.2286#19.2	18.1	11.6
13.8288	24.665	13.9406#17.3	18.1	11.6
13.4836	20.4382	12.1436#17.3	18.1	11.6
12.606	23.8105	16.148#17.3	18.1	11.6
23.5712	34.1512	19.5639#15.3	16.3	11.6
23.5712	34.1512	19.5639#15.3	16.3	11.6
18.12	27.2002	16.2663#15.3	16.3	11.6
14.3359	22.7925	14.3791#15.3	16.3	11.6
14.3359	22.7925	14.3791#15.3	16.3	11.6
12.3646	16.1998	8.88478#15.3	16.3	11.6
12.5531	17.3556	9.89536#13.4	14.5	11.6
6.55525	7.62128	3.86067#13.4	14.5	11.6
7.14613	11.752	7.04729#13.4	14.5	11.6
14.0848	18.8963	9.86442#13.4	14.5	11.6
9.39802	17.2388	8.31637#13.4	14.5	11.6
13.9565	19.2695	10.7633#13.4	14.5	11.6
14.4234	19.8886	11.0799#13.4	14.5	11.6
7.14746	13.9232	7.90151#13.4	14.5	11.6
12.1597	20.6645	11.8201#13.4	14.5	9.3
8.11514	12.3731	7.05017#13.4	14.5	9.3
8.88846	19.274	10.6618#13.4	14.5	9.3
8.05704	20.5117	9.26436#13.4	14.5	9.3
8.05704	20.5117	9.26436#13.4	14.5	9.3
9.9384	19.9032	8.96191#13.4	14.5	9.3
9.9384	19.9032	8.96191#13.4	12.7	11.6
20.538	34.0182	17.1111#13.4	12.7	11.6
15.3472	22.7589	13.2216#13.4	12.7	11.6
19.0607	25.9197	15.9317#13.4	12.7	11.6
16.9821	32.0783	21.0115#13.4	12.7	11.6
7.80199	13.4514	6.26759#13.4	12.7	11.6
9.91291	14.2216	7.90417#13.4	12.7	11.6
18.5072	28.7366	16.6345#13.4	12.7	9.3
18.5072	28.7366	16.6345#13.4	12.7	9.3
11.0636	20.0418	13.551#13.4	12.7	11.6
12.6671	21.6999	13.6622#13.4	12.7	11.6
14.888	20.8809	10.7575#13.4	12.7	11.6
15.3948	25.1892	12.9484#13.4	12.7	9.3
12.5978	24.7474	11.8428#13.4	12.7	9.3
10.5694	22.6704	13.7481#13.4	12.7	9.3
9.67206	16.9485	7.47414#11.5	12.7	9.3
9.67206	16.9485	7.47414#11.5	12.7	9.3
8.70087	11.4563	6.12508#11.5	12.7	9.3
13.0775	18.101	9.9768#13.4	12.7	11.6
11.0122	17.3717	8.45362#13.4	12.7	11.6
8.76766	14.6068	8.97827#11.5	12.7	9.3
15.874	26.751	15.7872#11.5	12.7	9.3
15.874	26.751	15.7872#11.5	12.7	9.3
17.6549	28.1268	16.7537#11.5	12.7	9.3
24.7633	38.6726	21.1004#13.4	12.7	9.3
16.8867	29.9309	14.3213#13.4	12.7	9.3
8.16449	14.3609	6.76214#13.4	12.7	9.3
13.9769	19.1555	11.5253#13.4	12.7	9.3
9.07705	15.1252	8.76081#13.4	12.7	9.3
14.5349	30.0337	19.9066#11.5	12.7	9.3
15.2117	32.3615	21.2742#11.5	12.7	9.3
13.0667	20.14	11.0657#13.4	12.7	9.3
13.0667	20.14	11.0657#13.4	12.7	9.3
10.6869	22.7761	13.8406#13.4	12.7	9.3
10.4619	22.5855	13.4569#13.4	12.7	9.3
9.52438	18.8046	11.8129#13.4	12.7	9.3
4.88343	7.81078	4.08224#13.4	12.7	9.3
4.88343	7.81078	4.08224#13.4	12.7	9.3
17.4355	24.7201	14.9194#13.4	12.7	9.3
19.4502	28.5784	17.1083#13.4	12.7	9.3
7.68072	14.0209	8.1064#11.5	12.7	9.3
7.68072	14.0209	8.1064#11.5	12.7	9.3
7.75052	12.873	6.96949#13.4	12.7	9.3
9.44245	18.0413	10.9048#13.4	12.7	9.3
8.04906	16.1933	8.5738#13.4	12.7	9.3
8.04906	16.1933	8.5738#11.5	12.7	9.3
10.2067	20.33	11.8948#11.5	12.7	9.3
11.9733	18.9171	9.17132#13.4	12.7	9.3
8.42071	14.0036	6.73233#13.4	12.7	9.3
11.0906	15.6836	8.65564#13.4	12.7	9.3
11.0906	15.6836	8.65564#13.4	12.7	9.3
15.1701	27.4375	16.8743#13.4	12.7	9.3
15.1701	27.4375	16.8743#13.4	12.7	9.3
14.0443	24.6025	15.8011#13.4	12.7	9.3
9.78289	13.3629	7.20248#13.4	12.7	9.3
9.78289	13.3629	7.20248#13.4	12.7	9.3
10.3754	18.0853	12.2993#13.4	12.7	9.3
10.8165	19.1946	12.1468#13.4	12.7	9.3
19.321	38.3008	25.2606#13.4	12.7	9.3
9.20699	15.2539	8.49887#13.4	12.7	9.3
6.6368	12.5507	7.04614#13.4	12.7	9.3
8.49566	12.2532	5.76142#13.4	12.7	9.3
11.3238	21.9827	10.8481#13.4	12.7	9.3
10.0466	14.5273	6.85591#13.4	12.7	9.3
11.3805	21.9079	9.93038#13.4	12.7	9.3
11.3805	21.9079	9.93038#13.4	12.7	9.3
7.91306	14.859	7.19921#13.4	12.7	9.3
9.37361	15.1345	8.20163#13.4	12.7	9.3
7.21048	16.485	7.72022#13.4	12.7	9.3
9.03197	18.6229	10.8406#13.4	12.7	9.3
6.43879	12.8978	6.48916#13.4	12.7	9.3
10.6634	16.5387	8.47059#13.4	12.7	9.3
10.6634	16.5387	8.47059#13.4	12.7	9.3
7.4557	12.1684	6.29565#13.4	12.7	9.3
9.30192	14.2082	7.77772#13.4	12.7	9.3
11.1859	14.3487	8.09267#13.4	12.7	9.3
11.1859	14.3487	8.09267#13.4	12.7	9.3
7.87053	10.768	5.30978#13.4	12.7	9.3
14.9103	18.6318	10.572#13.4	12.7	9.3
12.9841	18.8166	9.44688#13.4	12.7	9.3
11.7715	24.7575	15.1019#13.4	12.7	9.3
11.7715	24.7575	15.1019#13.4	12.7	9.3
7.2823	11.2384	5.41055#13.4	12.7	9.3
8.44888	10.6199	6.13887#13.4	12.7	9.3
11.0848	15.0935	8.39151#13.4	12.7	9.3
10.3287	14.743	8.62615#13.4	12.7	9.3
18.9324	27.6563	16.0169#13.4	12.7	9.3
18.9324	27.6563	16.0169#13.4	12.7	9.3
17.536	26.3692	14.2916#13.4	12.7	9.3
17.536	26.3692	14.2916#13.4	12.7	9.3
18.4064	25.3962	13.424#13.4	12.7	9.3
13.4903	19.6749	11.5058#13.4	12.7	9.3
7.71484	13.5165	8.37658#13.4	12.7	9.3
8.21323	13.672	8.19101#13.4	12.7	9.3
8.21323	13.672	8.19101#13.4	12.7	9.3
6.65345	12.7778	6.9562#13.4	12.7	9.3
7.58648	11.7756	5.09473#13.4	12.7	9.3
6.94222	11.2343	4.58986#13.4	12.7	9.3
11.3581	23.6335	14.3988#13.4	14.5	9.3
20.0079	43.5904	27.9707#13.4	12.7	9.3
13.1335	19.1188	9.3889#13.4	12.7	9.3
14.917	25.0733	11.4676#13.4	12.7	9.3
14.917	25.0733	11.4676#13.4	12.7	9.3
15.9712	26.2946	12.3753#13.4	12.7	9.3
5.36646	12.2686	4.31936#13.4	12.7	9.3
6.20556	11.3237	5.54662#13.4	12.7	9.3
14.7185	19.7763	11.4349#13.4	12.7	9.3
14.7185	19.7763	11.4349#13.4	12.7	9.3
12.6188	20.9886	13.3673#13.4	12.7	9.3
6.34256	9.20721	4.90823#13.4	12.7	9.3
5.88016	9.17287	4.79695#13.4	12.7	9.3
5.88016	9.17287	4.79695#13.4	12.7	9.3
16.5832	22.8809	13.9377#13.4	12.7	9.3
10.9663	15.0258	8.96458#13.4	12.7	9.3
11.6375	14.7174	9.04455#13.4	12.7	9.3
11.6761	19.1812	8.85271#13.4	12.7	9.3
11.3323	21.4037	13.5111#13.4	12.7	9.3
11.0622	17.6684	8.13164#13.4	12.7	9.3
11.0863	18.2384	10.6976#11.5	12.7	9.3
7.8547	14.0394	8.73471#11.5	12.7	9.3
7.8547	14.0394	8.73471#11.5	12.7	9.3
8.0319	13.9669	7.61685#11.5	12.7	9.3
11.6615	19.7486	10.5796#11.5	12.7	9.3
9.9336	18.1868	10.5318#11.5	12.7	9.3
8.19506	16.435	7.47985#11.5	12.7	9.3
7.95385	9.51771	5.16913#11.5	12.7	9.3
8.2165	18.5977	7.03746#11.5	12.7	9.3
15.4035	30.9936	16.6256#11.5	12.7	9.3
14.8831	20.9043	12.6342#9.6	12.7	9.3
6.8617	11.4247	6.9713#9.6	12.7	9.3
14.8208	22.8616	12.7519#9.6	12.7	9.3
9.99203	19.3475	9.34702#9.6	12.7	9.3
10.1847	18.9186	10.1848#9.6	12.7	9.3
7.43759	10.0833	5.18572#9.6	12.7	9.3
6.12119	8.66155	4.93717#9.6	12.7	9.3
7.82279	10.7659	5.14532#9.6	12.7	9.3
7.4909	9.26519	5.25346#9.6	12.7	9.3
10.316	20.5562	12.964#9.6	12.7	9.3
11.5261	21.6137	14.2498#9.6	12.7	9.3
10.1305	14.0958	7.85775#9.6	12.7	9.3
11.9783	16.7839	8.46949#9.6	12.7	9.3
10.4507	13.3514	7.31208#9.6	12.7	9.3
8.71345	12.1842	6.88647#9.6	12.7	9.3
14.1988	28.535	19.1116#9.6	12.7	9.3
10.0115	21.9885	13.1854#9.6	12.7	9.3
10.1762	13.8756	7.67711#9.6	12.7	9.3
8.48798	14.1428	8.15946#9.6	12.7	9.3
9.32664	14.7961	8.40026#7.6	12.7	9.3
9.32664	14.7961	8.40026#7.6	12.7	9.3
13.3027	19.6027	11.1991#7.6	12.7	9.3
7.95108	15.0798	8.93759#9.6	12.7	9.3
10.3846	18.2028	11.7595#9.6	12.7	9.3
14.0534	29.5324	19.0924#9.6	12.7	9.3
10.2049	14.4061	8.41634#9.6	12.7	9.3
9.58222	13.2274	6.97588#9.6	12.7	9.3
14.9433	26.4367	13.9535#9.6	12.7	9.3
13.3927	19.024	9.71219#9.6	12.7	9.3
11.8213	17.3784	9.58587#9.6	12.7	9.3
6.93627	12.891	7.47538#9.6	12.7	9.3
6.18165	10.5286	5.70588#9.6	12.7	9.3
8.30582	12.2378	6.73692#9.6	12.7	9.3
9.92825	15.6117	7.83385#9.6	12.7	9.3
8.38014	12.3189	6.54527#9.6	12.7	9.3
10.2001	16.5237	9.86598#9.6	12.7	9.3
10.7662	16.7575	10.5338#9.6	12.7	9.3
10.7662	16.7575	10.5338#9.6	12.7	9.3
10.7726	15.609	10.0508#9.6	12.7	9.3
9.80752	15.2556	10.0041#9.6	12.7	9.3
11.0813	19.5011	10.5384#9.6	12.7	9.3
11.0813	19.5011	10.5384#9.6	12.7	9.3
14.3473	16.9779	10.2754#9.6	12.7	9.3
11.5836	18.8839	12.299#9.6	12.7	9.3
7.30047	12.0377	7.61751#9.6	12.7	9.3
10.4066	18.751	12.5512#9.6	12.7	9.3
11.0124	14.5045	8.45216#9.6	12.7	9.3
11.0567	17.1772	8.26438#9.6	12.7	9.3
11.8829	19.6631	10.9657#9.6	12.7	9.3
10.6118	18.4879	10.3951#9.6	12.7	9.3
8.56144	14.9103	9.31573#9.6	12.7	9.3
8.56144	14.9103	9.31573#9.6	12.7	9.3
9.1942	14.9849	8.83196#9.6	12.7	9.3
7.145	9.77075	5.20377#9.6	12.7	9.3
12.2533	18.5394	11.3083#9.6	12.7	9.3
14.1068	21.1405	12.7244#9.6	12.7	9.3
15.3255	25.2735	14.2137#9.6	12.7	9.3
15.3255	25.2735	14.2137#9.6	12.7	9.3
8.79128	15.862	7.38697#9.6	12.7	9.3
7.49008	20.6185	8.26077#9.6	12.7	9.3
10.9814	18.312	9.99389#9.6	12.7	9.3
11.5736	19.3348	8.68256#7.6	12.7	9.3
12.2476	17.8062	8.93816#7.6	12.7	9.3
11.0025	14.7772	7.88841#7.6	12.7	9.3
11.8212	14.4693	8.24858#9.6	12.7	9.3
12.9484	20.353	9.97463#9.6	12.7	9.3
9.93726	16.355	9.55718#9.6	12.7	9.3
10.4322	17.9832	9.06713#9.6	12.7	9.3
10.4322	17.9832	9.06713#9.6	12.7	9.3
11.1979	15.6235	8.32717#9.6	12.7	9.3
7.83291	15.4912	8.88632#9.6	12.7	9.3
10.9006	16.6047	9.0458#9.6	12.7	9.3
10.9006	16.6047	9.0458#9.6	12.7	9.3
7.89494	17.6291	9.81746#9.6	12.7	9.3
10.2452	16.615	10.4324#9.6	12.7	9.3
9.73834	21.9027	12.5081#9.6	12.7	9.3
10.0005	23.41	12.7341#9.6	12.7	9.3
8.31133	15.0063	9.48823#9.6	12.7	9.3
7.54278	15.2263	8.394#9.6	12.7	9.3
7.91718	14.2942	8.17967#9.6	12.7	9.3
8.04198	15.6493	8.99601#9.6	12.7	9.3
12.5973	17.7668	10.7307#9.6	12.7	9.3
14.0414	20.1282	12.2716#9.6	12.7	9.3
9.37875	13.2307	7.90144#9.6	12.7	9.3
6.49477	13.3562	5.31184#9.6	12.7	9.3
12.7089	19.6279	10.6641#9.6	12.7	9.3
7.94088	12.0086	7.69666#9.6	12.7	9.3
11.2376	14.6615	7.94729#9.6	12.7	9.3
8.1658	12.0968	6.88942#9.6	12.7	9.3
17.7968	31.8085	16.014#9.6	12.7	9.3
17.2118	23.7057	13.1551#9.6	12.7	9.3
10.3375	19.353	8.31298#9.6	12.7	9.3
13.5824	23.2247	12.3241#9.6	12.7	9.3
13.5824	23.2247	12.3241#9.6	12.7	9.3
7.9338	9.97318	5.60736#9.6	12.7	9.3
10.4108	15.8665	8.92073#9.6	12.7	9.3
8.71287	11.3336	6.22275#9.6	12.7	9.3
9.34	11.2198	6.3577#9.6	12.7	9.3
13.1663	18.2541	10.8272#9.6	12.7	9.3
10.759	21.0815	10.8455#9.6	12.7	9.3
9.20592	17.3323	10.5415#9.6	12.7	9.3
9.20592	17.3323	10.5415#9.6	12.7	9.3
7.07347	11.975	6.80426#9.6	12.7	9.3
14.5258	20.6666	13.418#9.6	12.7	9.3
14.5258	20.6666	13.418#9.6	12.7	9.3
10.2742	13.7643	8.03919#9.6	12.7	9.3
10.8636	13.2292	7.28933#9.6	12.7	9.3
10.8334	15.5616	8.18546#9.6	12.7	9.3
7.22131	15.6939	7.25307#9.6	12.7	9.3
9.58333	16.6072	6.99171#9.6	12.7	9.3
11.1861	17.7654	8.07851#9.6	12.7	9.3
9.89054	18.5029	8.4844#9.6	12.7	9.3
9.89054	18.5029	8.4844#9.6	12.7	9.3
7.26385	19.6681	7.61609#9.6	12.7	9.3
16.2435	27.5661	14.6264#9.6	12.7	9.3
16.2435	27.5661	14.6264#9.6	12.7	9.3
8.25156	11.5074	6.40266#9.6	12.7	9.3
13.1236	15.3485	9.19447#9.6	12.7	9.3
8.91665	15.845	7.5053#9.6	12.7	9.3
10.1731	15.1048	9.14586#9.6	12.7	9.3
9.12635	15.401	8.85897#9.6	12.7	9.3
11.4143	22.7481	10.3819#9.6	12.7	9.3
9.72573	15.0839	8.73894#9.6	12.7	9.3
13.3154	21.3471	11.7004#9.6	12.7	9.3
11.1868	15.4721	8.12927#9.6	12.7	9.3
12.5055	25.2997	13.4172#9.6	12.7	9.3
12.6282	18.2233	11.1969#9.6	12.7	9.3
12.5685	20.2779	11.101#9.6	12.7	9.3
12.5685	20.2779	11.101#9.6	12.7	9.3
13.3658	16.6914	9.97377#9.6	12.7	9.3
11.4872	17.5617	9.12493#9.6	12.7	9.3
16.937	25.8137	13.3032#9.6	12.7	9.3
16.937	25.8137	13.3032#9.6	12.7	9.3
9.61189	12.5926	6.77616#9.6	12.7	9.3
16.169	25.0151	13.6958#9.6	12.7	9.3
16.0376	28.2188	16.4397#9.6	12.7	9.3
15.1537	36.7247	21.532#9.6	12.7	9.3
16.906	34.3843	21.9692#9.6	12.7	9.3
15.1408	30.3499	19.4406#9.6	12.7	9.3
15.1408	30.3499	19.4406#9.6	12.7	9.3
18.2951	33.3824	21.6842#11.5	12.7	9.3
15.9458	24.6189	14.3529#11.5	12.7	9.3
28.2303	34.5685	21.7642#13.4	16.3	9.3
15.5852	21.2512	13.6394#13.4	16.3	9.3
15.5852	21.2512	13.6394#15.3	20.0	9.3
24.0137	33.1841	19.5665#15.3	20.0	9.3
14.0165	23.471	13.2443#15.3	20.0	9.3
14.0165	23.471	13.2443#21.1	47.2	9.3
17.4366	33.7341	23.3207#21.1	47.2	9.3
19.597	35.7514	24.2474#21.1	47.2	9.3
8.77935	11.7668	6.64593#25.0	70.9	11.6
25.4593	33.2112	19.2243#25.0	70.9	11.6
19.4162	27.393	15.313#25.0	70.9	11.6
36.8495	46.1925	28.8648#25.0	70.9	11.6
24.0353	37.5261	22.9236#30.7	80.0	9.3
24.0353	37.5261	22.9236#30.7	80.0	9.3
45.2621	63.6029	37.2404#38.4	83.6	11.6
24.1557	35.2252	21.3516#38.4	83.6	11.6
32.2978	40.2725	25.0941#44.2	87.2	11.6
27.0208	35.7488	22.3773#44.2	87.2	11.6
27.0208	35.7488	22.3773#44.2	87.2	11.6
25.4072	31.9259	19.3127#48.0	89.0	11.6
27.492	33.6291	21.1499#48.0	89.0	11.6
20.966	31.7958	18.6711#48.0	89.0	11.6
20.966	31.7958	18.6711#55.7	90.9	11.6
19.6024	37.9132	23.689#55.7	90.9	11.6
22.2248	39.5386	26.6239#59.6	90.9	11.6
22.4453	47.5213	31.5402#59.6	90.9	11.6
22.2568	42.336	28.0228#59.6	90.9	11.6
17.5687	34.3158	23.956#59.6	90.9	11.6
14.6972	31.6278	20.5849#59.6	90.9	11.6
22.986	28.0601	17.4982#61.5	92.7	11.6
22.986	28.0601	17.4982#61.5	92.7	11.6
13.3885	27.1423	17.1958#63.4	92.7	13.9
13.5682	21.7973	13.8839#63.4	92.7	13.9
23.4647	42.5346	25.5477#67.3	92.7	13.9
22.666	30.9053	16.7652#67.3	92.7	13.9
10.6451	13.0111	7.65747#67.3	94.5	13.9
24.8948	30.9922	18.9168#67.3	94.5	13.9
32.403	47.5263	26.1987#65.3	94.5	13.9
15.3214	24.6151	14.8137#65.3	94.5	13.9
18.5559	28.3935	16.5212#65.3	94.5	13.9
10.9839	26.3508	13.7644#65.3	92.7	13.9
12.3128	30.4814	15.8672#65.3	92.7	13.9
12.4683	29.7246	16.1058#65.3	92.7	13.9
12.4683	29.7246	16.1058#65.3	92.7	13.9
10.968	16.5368	10.1051#63.4	92.7	13.9
15.8077	22.502	11.9515#63.4	92.7	13.9
17.7404	27.1554	16.5189#61.5	90.9	13.9
14.1207	20.4839	12.0361#61.5	90.9	13.9
22.6535	38.4763	25.195#61.5	90.9	13.9
13.1223	17.9761	10.7594#59.6	90.9	13.9
13.1223	17.9761	10.7594#59.6	90.9	13.9
7.83732	11.9021	6.3011#55.7	89.0	13.9
7.83732	11.9021	6.3011#55.7	89.0	13.9
15.1407	25.4809	16.1049#48.0	87.2	13.9
14.5061	21.207	12.4803#48.0	87.2	13.9
11.5998	21.147	11.3279#48.0	87.2	13.9
12.2837	20.1161	10.7367#48.0	87.2	13.9
16.8561	26.2923	15.31#32.6	80.0	13.9
16.8561	26.2923	15.31#32.6	80.0	13.9
7.27069	14.3935	6.75335#21.1	47.2	11.6
14.1047	19.7385	10.6285#21.1	47.2	11.6
14.1047	19.7385	10.6285#21.1	47.2	11.6
11.3161	26.8241	14.9692#15.3	25.4	11.6
6.96111	14.6974	7.97706#15.3	25.4	11.6
14.2163	23.5389	13.7989#11.5	18.1	11.6
10.5015	15.0662	7.82237#11.5	18.1	11.6
12.5426	18.7295	9.00024#11.5	18.1	11.6
11.9599	16.5974	8.89036#11.5	18.1	11.6
10.6884	15.0583	7.33953#11.5	18.1	11.6
10.7056	23.1611	13.7223#11.5	18.1	9.3
20.9338	28.374	15.6876#11.5	16.3	11.6
13.8512	23.6624	14.5496#11.5	16.3	11.6
11.2943	17.7381	9.59543#11.5	14.5	9.3
11.2943	17.7381	9.59543#11.5	14.5	9.3
8.96921	22.0279	10.7989#9.6	14.5	9.3
16.6377	30.9901	19.9737#9.6	14.5	9.3
16.6377	30.9901	19.9737#9.6	14.5	9.3
12.1108	27.5354	12.6014#9.6	12.7	9.3
13.8287	31.0668	18.1272#9.6	12.7	9.3
15.1772	33.9478	20.535#9.6	12.7	9.3
20.1378	30.0926	16.6251#9.6	14.5	9.3
21.9266	29.835	16.164#9.6	14.5	9.3
14.4427	21.159	10.4805#9.6	14.5	9.3
23.8063	57.1635	34.059#9.6	14.5	9.3
27.6057	36.0289	21.4255#9.6	14.5	9.3
27.6057	36.0289	21.4255#9.6	14.5	9.3
15.0736	20.1485	11.9389#7.6	12.7	9.3
13.2987	21.1345	10.3256#7.6	12.7	9.3
17.3945	27.389	14.5237#7.6	12.7	9.3
23.0405	39.5111	18.6845#7.6	12.7	9.3
16.2641	22.096	13.5817#5.7	12.7	9.3
12.7397	28.759	16.1967#5.7	12.7	9.3
12.7397	28.759	16.1967#5.7	12.7	9.3
12.1524	26.7978	16.7694#5.7	12.7	9.3
19.2699	30.1309	18.4554#5.7	12.7	9.3
13.7722	29.7516	19.1573#5.7	12.7	9.3
12.131	26.0215	15.869#5.7	12.7	9.3
12.7347	28.0474	17.0039#5.7	12.7	9.3
12.9586	26.2366	17.2709#5.7	12.7	9.3
11.3853	13.2656	7.77473#5.7	12.7	9.3
13.1284	25.2626	16.7712#5.7	12.7	9.3
12.6049	25.5987	14.553#5.7	12.7	9.3
15.3747	20.3511	10.8364#5.7	12.7	9.3
9.28008	17.894	10.5776#5.7	12.7	6.9
10.5133	16.3599	10.2706#5.7	12.7	6.9
11.5992	17.6568	10.456#5.7	12.7	6.9
8.70509	12.0037	7.35814#5.7	12.7	6.9
11.0584	22.4406	14.3578#5.7	12.7	9.3
19.4377	28.8912	17.7295#5.7	12.7	9.3
7.45468	11.3278	6.59928#5.7	12.7	9.3
10.4517	16.2982	9.0046#5.7	12.7	9.3
13.2205	16.2549	9.89266#5.7	12.7	9.3
12.465	19.528	10.7506#5.7	12.7	9.3
8.91321	14.3868	8.2664#5.7	12.7	9.3
15.096	32.5174	21.2276#5.7	12.7	9.3
11.5638	20.143	13.7601#5.7	12.7	9.3
7.37198	11.9156	6.9277#5.7	12.7	9.3
14.5877	26.6206	17.4703#5.7	12.7	9.3
14.5877	26.6206	17.4703#5.7	12.7	9.3
10.9642	18.5322	12.3273#5.7	12.7	9.3
8.03899	14.1786	8.9748#5.7	12.7	9.3
8.03899	14.1786	8.9748#5.7	12.7	9.3
16.159	25.0168	14.4506#5.7	12.7	9.3
10.3855	17.4041	9.68124#5.7	12.7	9.3
10.3855	17.4041	9.68124#5.7	12.7	9.3
15.8015	27.3808	15.4979#5.7	12.7	9.3
11.79	19.3944	11.1725#5.7	12.7	6.9
14.1024	18.8674	10.4121#5.7	12.7	6.9
16.4654	20.4491	12.1255#5.7	12.7	6.9
9.36126	12.9456	7.99129#5.7	12.7	6.9
9.36126	12.9456	7.99129#5.7	12.7	6.9
11.0502	20.4585	10.5084#5.7	12.7	6.9
14.4509	17.613	10.2366#5.7	12.7	9.3
8.79994	17.7188	7.91384#5.7	12.7	9.3
8.79994	17.7188	7.91384#5.7	12.7	6.9
16.4827	32.0255	20.9874#5.7	12.7	6.9
15.9947	20.5508	12.5063#5.7	12.7	9.3
12.1127	16.3284	8.41809#5.7	12.7	9.3
13.2649	18.5144	9.93992#5.7	12.7	9.3
17.4988	42.1551	25.0636#5.7	12.7	9.3
10.0092	19.5858	12.4512#5.7	12.7	6.9
10.9946	23.683	14.4444#5.7	12.7	6.9
10.5637	21.5124	12.9517#5.7	12.7	6.9
14.131	18.6135	10.1678#5.7	12.7	6.9
11.6334	21.569	14.3283#5.7	12.7	6.9
13.6921	20.4234	10.6831#5.7	12.7	6.9
10.1455	12.4159	6.92028#5.7	12.7	6.9
11.469	23.552	14.4172#5.7	12.7	6.9
11.6073	25.0231	14.4684#5.7	12.7	6.9
11.6073	25.0231	14.4684#5.7	12.7	6.9
17.5225	21.8871	13.295#5.7	12.7	6.9
18.7268	27.3108	15.9831#5.7	12.7	6.9
17.5225	26.724	15.016#5.7	12.7	6.9
13.2334	29.7516	17.1027#5.7	12.7	6.9
10.1148	16.4892	7.45193#5.7	12.7	6.9
12.5871	20.6017	13.3358#5.7	12.7	6.9
12.8535	19.957	12.4066#5.7	12.7	6.9
10.5929	17.2309	7.82454#5.7	12.7	9.3
9.99402	20.0168	11.3696#5.7	12.7	9.3
24.0133	33.8235	18.7482#5.7	12.7	6.9
8.53423	17.2725	9.61696#5.7	12.7	6.9
10.6077	21.0381	13.4971#5.7	12.7	6.9
18.3348	23.2215	13.3962#5.7	12.7	6.9
18.2073	30.0805	18.3464#5.7	12.7	6.9
18.2073	30.0805	18.3464#5.7	12.7	9.3
14.8074	26.962	16.2364#5.7	12.7	9.3
12.0254	23.4366	11.1852#5.7	12.7	9.3
8.4017	19.4656	9.00401#5.7	12.7	9.3
8.39215	16.7401	8.09264#5.7	12.7	9.3
7.65729	18.3851	8.86115#5.7	12.7	9.3
9.09189	22.9547	11.1003#5.7	12.7	9.3
13.7023	19.6423	10.9526#5.7	12.7	9.3
11.716	20.593	9.49908#5.7	12.7	6.9
20.0317	36.9628	17.743#5.7	12.7	6.9
16.4713	31.521	13.9729#5.7	12.7	6.9
16.4713	31.521	13.9729#7.6	14.5	9.3
12.9024	16.9758	10.2921#7.6	14.5	9.3
18.9561	41.7081	26.2942#11.5	16.3	9.3
19.7312	41.9999	21.6314#11.5	16.3	9.3
16.6253	33.2441	17.5967#11.5	16.3	9.3
22.2134	32.0928	19.1024#11.5	16.3	9.3
15.6876	34.3071	21.7818#13.4	25.4	9.3
7.11604	13.5685	6.46925#13.4	25.4	9.3
35.2493	45.4417	27.3945#15.3	50.9	9.3
35.7673	49.0618	28.9386#15.3	50.9	9.3
14.0815	22.3616	13.2893#15.3	50.9	9.3
13.8993	25.6149	15.3012#21.1	69.0	9.3
29.7887	50.7843	30.605#21.1	69.0	9.3
20.1104	38.044	22.9625#21.1	69.0	9.3
15.7076	30.4906	13.4444#28.8	76.3	9.3
22.7568	35.6457	17.9057#28.8	76.3	9.3
16.5492	40.1156	16.7037#34.6	78.1	9.3
12.3844	32.1202	15.9773#34.6	78.1	9.3
9.37172	18.2619	11.229#34.6	78.1	9.3
9.37172	18.2619	11.229#34.6	78.1	9.3
14.8961	26.1872	14.4835#38.4	76.3	9.3
16.3821	29.3245	16.6039#38.4	76.3	9.3
25.868	38.8332	21.2865#40.3	78.1	9.3
19.7059	34.2363	19.3591#40.3	78.1	9.3
9.66932	24.3841	13.143#40.3	78.1	9.3
10.22	19.2312	10.1589#38.4	78.1	9.3
13.9083	32.1061	20.0702#38.4	78.1	9.3
21.9988	39.1078	24.451#38.4	78.1	9.3
17.1436	33.086	16.6535#36.5	78.1	9.3
17.1352	36.4239	21.0257#36.5	78.1	9.3
17.1487	31.1546	14.4911#36.5	80.0	9.3
8.15388	21.969	9.75628#36.5	80.0	9.3
30.1765	55.5426	25.4373#36.5	80.0	9.3
11.643	18.3965	10.1215#44.2	83.6	9.3
11.643	18.3965	10.1215#44.2	83.6	9.3
29.0034	44.6609	23.6636#51.9	87.2	9.3
27.522	47.0652	22.6477#51.9	87.2	9.3
29.0295	45.0685	24.8226#51.9	87.2	9.3
20.5137	31.6122	17.5871#55.7	89.0	9.3
24.0436	52.5633	32.3541#55.7	89.0	9.3
15.3465	24.774	14.1452#55.7	89.0	9.3
19.6353	24.9857	14.4664#55.7	89.0	9.3
16.9801	23.5114	14.5677#57.6	92.7	11.6
34.6485	46.3605	29.2643#57.6	92.7	11.6
20.4327	31.5425	21.2398#57.6	92.7	11.6
23.4904	43.3813	28.029#57.6	92.7	11.6
23.4904	43.3813	28.029#57.6	92.7	11.6
25.1134	36.4929	22.2559#55.7	92.7	13.9
19.0641	33.8113	19.0952#55.7	92.7	13.9
15.2229	21.1331	13.5575#55.7	92.7	13.9
15.2229	21.1331	13.5575#55.7	92.7	13.9
18.2778	32.4501	21.1956#53.8	92.7	13.9
34.5077	51.7068	32.438#48.0	90.9	13.9
34.2021	47.4382	29.7486#48.0	90.9	13.9
18.5928	27.0782	16.5869#48.0	90.9	13.9
24.6049	40.4681	25.8555#32.6	85.4	11.6
25.8926	35.3496	21.8102#32.6	85.4	11.6
13.4822	24.8109	13.9206#32.6	85.4	11.6
21.9519	34.7642	21.6257#32.6	85.4	11.6
6.2886	12.8914	6.25105#21.1	69.0	11.6
6.2886	12.8914	6.25105#21.1	69.0	11.6
11.0156	18.2042	10.9727#13.4	36.3	11.6
13.75	20.604	12.6798#13.4	36.3	11.6
11.6877	17.794	10.5003#13.4	36.3	11.6
8.54523	17.1511	9.79174#11.5	21.8	11.6
11.3621	15.869	7.88018#11.5	21.8	11.6
9.80689	17.3373	10.2498#9.6	18.1	9.3
9.90098	19.2394	11.0978#9.6	18.1	9.3
29.5749	39.9865	23.3509#9.6	18.1	9.3
20.2736	29.7593	15.7875#9.6	16.3	9.3
19.6197	26.728	14.519#9.6	16.3	9.3
19.6197	26.728	14.519#9.6	16.3	9.3
18.4955	34.1533	22.6536#9.6	14.5	9.3
11.6763	28.295	15.0499#9.6	14.5	9.3
10.2933	26.2298	12.5994#9.6	14.5	9.3
18.9358	23.697	14.1995#9.6	12.7	9.3
22.0263	30.3518	16.764#7.6	12.7	9.3
18.4548	34.7345	20.5431#7.6	12.7	9.3
16.3584	26.0559	14.3806#7.6	12.7	9.3
8.58581	14.779	7.23933#7.6	12.7	9.3
8.58581	14.779	7.23933#7.6	12.7	9.3
11.1188	31.3089	14.5574#7.6	12.7	9.3
10.8671	25.4674	14.1505#7.6	12.7	9.3
8.96713	22.1559	10.9711#7.6	12.7	9.3
7.00469	17.4867	7.59738#7.6	12.7	9.3
19.2503	25.8861	15.0831#7.6	12.7	9.3
6.54915	25.6785	7.06785#7.6	12.7	9.3
13.805	33.951	12.9473#7.6	12.7	9.3
8.08874	17.2577	9.09774#7.6	12.7	9.3
14.1589	31.5783	17.3245#7.6	12.7	9.3
10.8284	18.0222	8.97506#7.6	12.7	9.3
10.8284	18.0222	8.97506#7.6	12.7	9.3
10.6604	13.7845	7.23935#7.6	12.7	9.3
15.6558	25.4108	13.4774#7.6	12.7	9.3
10.247	19.1879	11.4558#7.6	10.9	9.3
10.247	19.1879	11.4558#7.6	10.9	9.3
12.9361	25.3275	14.0478#7.6	10.9	9.3
15.7964	24.8662	13.4383#7.6	10.9	9.3
10.5302	13.1963	7.23986#7.6	10.9	9.3
7.61439	15.6367	7.4977#7.6	12.7	6.9
7.61439	15.6367	7.4977#7.6	12.7	6.9
11.2329	21.457	12.4993#7.6	12.7	6.9
7.27143	18.4029	8.27667#7.6	12.7	9.3
10.0379	15.6589	8.60823#7.6	12.7	9.3
9.93935	20.942	12.1413#7.6	10.9	9.3
12.2087	22.6935	12.7599#7.6	10.9	9.3
17.3444	22.242	12.5418#7.6	10.9	9.3
19.2577	27.4236	14.5412#7.6	10.9	9.3
12.9971	23.8563	16.4507#7.6	10.9	9.3
12.9971	23.8563	16.4507#7.6	10.9	9.3
15.9179	34.4821	22.5968#7.6	10.9	9.3
15.6645	29.2979	17.8865#7.6	10.9	9.3
14.6985	29.8367	19.0651#7.6	10.9	9.3
14.6985	29.8367	19.0651#7.6	10.9	9.3
20.4902	34.5062	20.624#7.6	10.9	9.3
17.6238	25.9308	14.7453#7.6	10.9	9.3
11.2092	14.7069	7.52117#7.6	12.7	9.3
11.2092	14.7069	7.52117#7.6	12.7	9.3
9.96423	17.4735	8.85671#7.6	12.7	9.3
8.12066	16.2067	7.60641#7.6	12.7	9.3
5.05453	9.65438	4.4487#7.6	12.7	9.3
9.79082	19.5294	9.93192#7.6	10.9	9.3
9.79082	19.5294	9.93192#7.6	10.9	9.3
6.26346	9.31912	4.16362#7.6	10.9	9.3
6.26346	9.31912	4.16362#7.6	10.9	9.3
9.66195	13.3441	7.37224#7.6	10.9	9.3
21.1476	25.831	15.8414#7.6	10.9	9.3
15.1379	20.0825	12.1354#7.6	10.9	9.3
10.5037	18.3928	10.0616#7.6	10.9	9.3
11.9393	24.411	15.2174#7.6	10.9	9.3
26.0348	36.2082	21.7888#7.6	10.9	9.3
26.0348	36.2082	21.7888#7.6	10.9	9.3
22.5668	33.74	20.396#7.6	10.9	9.3
10.9164	21.441	12.3442#5.7	10.9	9.3
5.43224	10.8522	4.89168#5.7	10.9	9.3
15.9487	27.9109	14.9791#7.6	10.9	9.3
15.9487	27.9109	14.9791#7.6	10.9	9.3
13.1249	23.4996	11.5203#7.6	10.9	9.3
14.1485	30.3613	18.3382#7.6	10.9	9.3
7.64877	12.1688	6.93039#7.6	10.9	9.3
13.8694	29.9516	18.0478#7.6	10.9	9.3
14.3562	29.4886	18.7735#7.6	10.9	9.3
14.3562	29.4886	18.7735#7.6	10.9	9.3
9.3097	13.6993	7.807#7.6	10.9	6.9
13.0473	22.7678	14.6374#7.6	10.9	6.9
12.4435	22.5715	12.9847#7.6	10.9	6.9
9.64781	13.1929	6.39054#7.6	10.9	6.9
9.27168	21.6778	9.26252#7.6	10.9	6.9
8.50796	17.5466	8.31151#7.6	10.9	6.9
8.50796	17.5466	8.31151#7.6	10.9	9.3
12.2851	17.8103	9.59469#7.6	10.9	9.3
16.8075	21.5602	12.322#7.6	10.9	9.3
11.3558	16.2869	7.95944#5.7	10.9	9.3
11.3558	16.2869	7.95944#5.7	10.9	9.3
8.07939	13.2862	7.36244#5.7	10.9	6.9
8.46133	17.5872	9.90391#5.7	10.9	6.9
11.1726	13.9835	8.53748#5.7	10.9	6.9
11.3364	23.4312	14.1661#7.6	10.9	9.3
22.6481	44.4375	25.2144#7.6	10.9	9.3
23.8099	37.6477	22.3453#7.6	10.9	9.3
23.8099	37.6477	22.3453#7.6	10.9	9.3
21.8165	40.5455	22.4965#7.6	10.9	9.3
17.7679	28.8666	13.7236#7.6	10.9	6.9
17.7679	28.8666	13.7236#7.6	10.9	6.9
23.2607	80.5839	34.4672#7.6	10.9	6.9
21.077	67.0918	25.5281#5.7	10.9	6.9
12.9223	62.7527	18.3506#5.7	10.9	6.9
24.1581	69.1984	35.198#5.7	9.0	4.6
17.7157	30.5426	17.5153#5.7	9.0	4.6
21.6177	46.5464	30.4916#5.7	9.0	4.6
23.6749	34.9022	19.5374#5.7	9.0	4.6
25.56	39.3735	22.272#5.7	9.0	4.6
25.56	39.3735	22.272#5.7	9.0	4.6
11.7634	13.6354	8.07309#5.7	9.0	4.6
9.23293	13.7207	6.66736#3.8	9.0	2.3
11.8985	22.6873	13.2441#3.8	9.0	2.3
17.2938	28.8201	17.5556#3.8	7.2	2.3
12.6864	25.4741	16.7796#3.8	7.2	2.3
17.3161	28.5285	16.6262#3.8	7.2	2.3
8.79274	16.5956	7.97787#3.8	9.0	2.3
16.0265	28.2241	14.1041#3.8	9.0	2.3
13.9544	21.8988	10.3539#3.8	9.0	2.3
14.1607	20.2644	11.7072#3.8	9.0	2.3
9.80151	16.5917	10.9574#3.8	9.0	2.3
15.5674	26.5717	12.3375#3.8	9.0	2.3
12.3834	18.4288	9.06366#3.8	9.0	2.3
17.1682	28.7355	15.9934#3.8	9.0	4.6
16.2488	27.4528	15.53#3.8	9.0	4.6
6.89947	11.5835	6.84018#3.8	9.0	4.6
18.5458	29.466	17.5083#3.8	9.0	4.6
14.9677	19.063	10.581#3.8	9.0	4.6
11.091	16.2061	8.53033#5.7	9.0	4.6
11.6135	18.4596	8.51468#5.7	9.0	4.6
13.2903	17.7474	9.21857#5.7	9.0	4.6
13.2903	17.7474	9.21857#5.7	9.0	4.6
6.52103	10.5751	6.04549#5.7	9.0	4.6
16.1072	24.0987	15.3848#5.7	9.0	4.6
12.7699	18.7528	10.1904#5.7	9.0	4.6
12.7699	18.7528	10.1904#3.8	9.0	2.3
13.7241	20.0747	10.1344#3.8	9.0	2.3
9.9639	13.3349	7.8467#5.7	9.0	4.6
7.69997	11.81	6.8277#5.7	9.0	4.6
7.69997	11.81	6.8277#5.7	9.0	4.6
9.36263	16.7294	10.9724#3.8	9.0	2.3
11.7254	16.4525	8.32253#3.8	9.0	2.3
12.513	16.8653	9.70172#3.8	9.0	2.3
20.1172	43.1617	28.5407#3.8	9.0	2.3
14.314	18.7311	11.5378#3.8	9.0	2.3
15.2447	20.0175	11.6737#3.8	9.0	4.6
14.8739	28.4062	12.8996#3.8	9.0	4.6
6.71979	15.1323	5.99037#3.8	9.0	4.6
8.30318	15.4104	7.26038#5.7	9.0	4.6
8.30318	15.4104	7.26038#5.7	9.0	4.6
8.719	24.06	11.3094#3.8	9.0	2.3
10.9653	18.3946	9.57881#3.8	9.0	2.3
19.699	25.9698	16.6166#3.8	9.0	2.3
16.1649	20.7705	11.7984#5.7	9.0	4.6
11.1457	15.7559	10.0778#5.7	9.0	4.6
11.1457	15.7559	10.0778#5.7	9.0	4.6
8.9946	14.6198	8.4226#5.7	9.0	4.6
5.28138	9.61682	4.04114#5.7	9.0	4.6
5.28138	9.61682	4.04114#5.7	9.0	4.6
10.317	15.9377	7.66888#5.7	9.0	4.6
7.49844	10.9426	5.95239#5.7	9.0	4.6
9.15781	12.5192	7.0281#5.7	9.0	4.6
9.15781	12.5192	7.0281#5.7	9.0	4.6
10.456	20.1669	10.1451#5.7	9.0	4.6
17.9445	21.5731	13.1959#5.7	9.0	4.6
10.4224	22.2315	10.7547#5.7	9.0	4.6
9.4155	20.1156	11.0636#5.7	9.0	4.6
15.001	19.8102	10.5326#5.7	9.0	4.6
11.334	20.1766	13.0573#3.8	9.0	4.6
8.73694	16.3339	10.0959#3.8	9.0	4.6
7.29254	11.5131	7.21446#3.8	9.0	4.6
7.19053	10.9074	6.85384#5.7	9.0	4.6
10.3095	17.5418	9.64876#5.7	9.0	4.6
8.60808	15.4555	7.63164#5.7	9.0	4.6
8.60808	15.4555	7.63164#5.7	9.0	4.6
12.8359	25.4932	11.3193#5.7	9.0	4.6
21.132	30.1414	16.3627#5.7	9.0	4.6
11.1912	18.1175	8.1469#5.7	9.0	4.6
11.1912	18.1175	8.1469#5.7	9.0	4.6
7.75949	16.5472	9.50982#5.7	9.0	4.6
12.9748	28.4142	16.8972#5.7	9.0	4.6
13.8109	23.4402	11.9152#5.7	9.0	4.6
12.8971	24.7226	14.8711#5.7	9.0	4.6
15.4218	23.1003	14.9081#5.7	9.0	4.6
11.8173	16.3116	8.97051#5.7	9.0	4.6
11.8173	16.3116	8.97051#5.7	9.0	4.6
13.0958	22.5279	14.7471#5.7	9.0	4.6
15.8095	29.0099	19.2983#5.7	9.0	4.6
9.0722	16.4951	10.1177#5.7	9.0	4.6
12.1658	17.9454	10.5267#5.7	9.0	4.6
20.1397	30.2219	18.6633#5.7	9.0	4.6
7.58354	13.7977	8.00841#5.7	9.0	4.6
10.6166	16.786	8.21315#5.7	9.0	4.6
10.9356	17.5053	10.6442#5.7	9.0	4.6
12.7103	17.9752	9.11383#5.7	9.0	4.6
12.7103	17.9752	9.11383#5.7	9.0	4.6
11.4398	14.845	7.81741#5.7	9.0	4.6
8.01637	16.4965	6.86167#5.7	9.0	4.6
17.2635	43.0573	24.8907#5.7	9.0	4.6
10.6775	29.5369	14.447#5.7	9.0	4.6
10.6775	29.5369	14.447#5.7	9.0	4.6
19.7797	34.1278	20.0368#5.7	9.0	4.6
12.6713	21.5849	11.8635#5.7	9.0	4.6
14.879	27.3296	17.5446#5.7	9.0	4.6
16.4695	21.0504	12.4746#5.7	9.0	4.6
16.4695	21.0504	12.4746#5.7	9.0	4.6
14.9118	20.1793	11.0373#5.7	9.0	4.6
10.514	16.1026	10.5471#5.7	9.0	4.6
12.5553	16.6277	8.90746#5.7	9.0	4.6
11.4471	18.4039	9.55848#5.7	9.0	4.6
6.57176	11.1318	5.39862#5.7	9.0	4.6
9.02783	13.8563	6.93649#5.7	9.0	4.6
12.1324	18.5783	11.0002#5.7	9.0	4.6
10.1853	20.9403	10.5649#5.7	9.0	4.6
15.6872	21.0787	11.2227#3.8	9.0	4.6
15.1544	22.1552	11.2347#3.8	9.0	4.6
7.04932	14.908	7.02544#3.8	9.0	4.6
8.11845	11.2522	5.33415#5.7	9.0	4.6
8.11845	11.2522	5.33415#5.7	9.0	4.6
11.8046	21.6496	12.2844#5.7	9.0	4.6
8.01042	12.0695	5.29145#5.7	9.0	4.6
9.53829	18.024	10.2094#5.7	9.0	4.6
13.5611	22.3154	12.4499#5.7	9.0	4.6
13.5611	22.3154	12.4499#5.7	9.0	4.6
12.7852	19.7047	10.818#5.7	9.0	4.6
8.7693	19.1301	10.645#5.7	9.0	4.6
15.8598	18.8297	11.4712#5.7	9.0	4.6
15.8598	18.8297	11.4712#5.7	9.0	4.6
11.4741	16.109	8.97749#5.7	9.0	4.6
19.5783	33.5131	19.0167#5.7	9.0	4.6
24.1952	36.9354	20.5768#5.7	9.0	4.6
14.4104	29.3622	15.246#5.7	9.0	4.6
14.4104	29.3622	15.246#5.7	9.0	4.6
12.9904	20.9546	10.9809#5.7	9.0	4.6
10.3926	19.8863	12.4176#5.7	9.0	4.6
10.3926	19.8863	12.4176#5.7	9.0	4.6
8.12661	19.7245	9.44797#5.7	9.0	4.6
7.63929	11.9931	6.56107#5.7	9.0	4.6
6.24426	10.5376	5.54572#5.7	9.0	4.6
6.3818	8.74499	5.09332#5.7	9.0	4.6
6.3818	8.74499	5.09332#5.7	9.0	4.6
9.70012	18.9054	11.8652#5.7	9.0	4.6
9.596	19.3351	11.6043#5.7	9.0	4.6
12.0666	18.2314	9.55377#5.7	9.0	4.6
12.0666	18.2314	9.55377#5.7	9.0	4.6
7.54109	14.6444	6.50679#5.7	9.0	4.6
12.1425	19.1673	10.005#5.7	9.0	4.6
10.3913	17.18	9.09607#5.7	9.0	4.6
14.9522	30.592	19.6924#5.7	9.0	4.6
19.631	27.6417	14.5079#5.7	9.0	4.6
9.99063	19.8524	10.2921#5.7	9.0	4.6
8.4009	15.5233	7.40058#5.7	9.0	4.6
6.4531	12.4648	5.69149#5.7	9.0	4.6
13.4396	16.8366	9.4138#5.7	9.0	4.6
6.80836	9.28715	5.21199#5.7	9.0	4.6
7.97818	19.0283	9.60735#5.7	9.0	4.6
11.8544	22.769	13.5422#5.7	9.0	4.6
15.899	32.9231	21.7901#5.7	9.0	4.6
19.8701	30.8884	16.9692#5.7	9.0	4.6
6.93552	10.9931	6.801#5.7	9.0	4.6
7.36977	11.5789	6.10521#5.7	9.0	4.6
9.30895	13.9191	7.34025#5.7	9.0	4.6
14.6505	21.5574	13.0059#5.7	9.0	4.6
10.2744	15.4457	8.84833#5.7	9.0	4.6
9.84584	17.4676	8.82333#5.7	9.0	4.6
9.04794	14.3296	6.81816#5.7	9.0	4.6
9.04794	14.3296	6.81816#5.7	9.0	4.6
17.3781	23.9472	13.2396#5.7	9.0	4.6
11.1629	21.3974	12.2551#5.7	9.0	4.6
17.8275	30.2636	18.4272#5.7	9.0	4.6
8.8986	19.3152	11.3926#5.7	9.0	4.6
7.13257	14.1865	8.20033#5.7	9.0	4.6
16.3237	25.7614	16.1262#5.7	9.0	4.6
14.5288	23.5935	13.3102#5.7	9.0	4.6
10.9364	13.7832	7.24304#5.7	9.0	4.6
8.49897	11.1441	6.27119#5.7	9.0	4.6
8.49897	11.1441	6.27119#5.7	9.0	4.6
9.90951	16.813	11.1777#5.7	10.9	4.6
10.3845	18.1046	12.3136#5.7	10.9	4.6
11.5071	22.5536	11.5927#5.7	10.9	4.6
11.5071	22.5536	11.5927#5.7	10.9	4.6
10.8968	17.8079	11.892#5.7	9.0	4.6
10.1785	20.4338	12.9248#5.7	9.0	4.6
12.5394	27.3525	17.0373#5.7	9.0	4.6
12.608	20.2881	11.2391#5.7	9.0	4.6
14.4631	26.172	13.7938#5.7	9.0	4.6
13.522	23.8909	15.6263#5.7	10.9	4.6
11.7689	21.5426	14.5114#5.7	10.9	4.6
11.7689	21.5426	14.5114#5.7	10.9	4.6
17.4908	26.8641	15.9489#5.7	9.0	4.6
16.2401	30.5204	15.6211#5.7	9.0	4.6
16.2401	30.5204	15.6211#5.7	9.0	4.6
15.7063	27.0126	13.4611#5.7	9.0	4.6
5.97267	8.75578	4.90832#5.7	10.9	4.6
12.9663	23.1741	13.8393#5.7	10.9	4.6
12.6298	20.2702	11.4397#5.7	9.0	4.6
15.9804	24.8359	13.7567#5.7	9.0	4.6
13.2308	20.4656	10.8902#5.7	9.0	4.6
9.27991	14.4252	6.5224#5.7	10.9	4.6
9.27991	14.4252	6.5224#5.7	10.9	4.6
6.84105	11.5105	7.0453#5.7	10.9	4.6
8.34202	15.0865	9.21754#5.7	10.9	4.6
7.61444	11.4022	6.43473#5.7	9.0	4.6
7.75668	10.4299	6.1358#5.7	9.0	4.6
7.75668	10.4299	6.1358#5.7	9.0	4.6
9.76289	16.0815	9.07827#5.7	9.0	4.6
9.93453	15.1656	8.48903#5.7	9.0	4.6
9.93453	15.1656	8.48903#5.7	10.9	4.6
9.16805	14.2493	7.5134#5.7	10.9	4.6
9.94492	15.4351	7.58561#5.7	9.0	4.6
11.4195	18.6915	9.43614#5.7	9.0	4.6
14.4035	23.5226	13.0096#5.7	9.0	4.6
5.45631	9.50758	5.18067#5.7	9.0	4.6
16.5071	26.6873	15.5771#5.7	9.0	4.6
8.96499	15.7835	8.18612#5.7	9.0	4.6
8.96499	15.7835	8.18612#5.7	10.9	4.6
9.58457	16.7186	8.72149#5.7	10.9	4.6
10.4789	15.015	8.0334#5.7	10.9	4.6
10.4789	15.015	8.0334#5.7	9.0	4.6
8.38179	15.4208	8.79332#5.7	9.0	4.6
9.81418	17.425	8.20581#5.7	10.9	4.6
9.19009	18.3074	8.78074#5.7	10.9	4.6
9.19009	18.3074	8.78074#5.7	10.9	4.6
9.41827	21.0201	11.8501#5.7	10.9	4.6
9.78233	19.0029	8.99467#5.7	10.9	4.6
9.3041	16.5036	10.6429#5.7	10.9	4.6
9.40034	18.9769	10.4081#5.7	10.9	4.6
15.2575	24.3079	11.8902#5.7	9.0	4.6
8.97701	16.9904	6.73363#5.7	9.0	4.6
7.56042	18.1094	7.57683#5.7	10.9	4.6
8.58804	21.0749	9.98706#5.7	10.9	4.6
14.8095	18.1932	10.5924#5.7	10.9	4.6
11.0057	18.6786	8.44226#5.7	10.9	4.6
11.0057	18.6786	8.44226#5.7	10.9	4.6
11.7741	17.7463	8.39445#5.7	10.9	4.6
11.1051	15.7687	7.91292#5.7	10.9	4.6
6.92177	15.7312	7.89635#5.7	10.9	4.6
6.92177	15.7312	7.89635#5.7	10.9	4.6
12.7122	26.6044	17.184#5.7	10.9	4.6
6.82101	12.9458	6.08701#5.7	10.9	4.6
10.7188	15.6169	8.5557#5.7	10.9	4.6
10.7188	15.6169	8.5557#5.7	10.9	4.6
19.9389	27.0284	15.0437#5.7	10.9	4.6
11.0316	18.5113	9.87096#5.7	10.9	4.6
15.2619	24.1291	13.811#5.7	10.9	4.6
14.1822	24.3227	14.1136#5.7	10.9	4.6
12.5883	17.9644	11.5188#5.7	10.9	4.6
14.0742	25.4176	14.8241#5.7	10.9	4.6
9.76141	13.232	7.13872#5.7	10.9	4.6
8.88654	14.3988	7.66183#5.7	10.9	4.6
9.25167	19.3202	11.5919#5.7	10.9	4.6
8.63401	14.012	7.80633#5.7	10.9	4.6
9.71189	19.7448	11.9569#5.7	10.9	4.6
12.7654	15.5145	8.82922#5.7	10.9	4.6
15.2447	18.3274	10.929#5.7	10.9	4.6
8.08984	12.5208	6.44333#5.7	10.9	4.6
15.9114	23.0217	12.0713#5.7	10.9	4.6
6.9541	12.1303	7.16183#5.7	10.9	4.6
8.14746	13.1405	7.65254#5.7	10.9	4.6
7.089	10.3942	5.60249#5.7	10.9	4.6
6.12641	11.1401	5.54358#5.7	10.9	4.6
7.7341	11.0126	6.21671#5.7	10.9	4.6
9.11438	14.7739	7.54813#5.7	10.9	4.6
10.0412	16.4693	7.84219#5.7	10.9	4.6
10.421	15.3882	9.26347#5.7	10.9	4.6
11.4637	18.4687	9.0609#5.7	10.9	4.6
11.4637	18.4687	9.0609#5.7	10.9	4.6
12.19	19.9122	11.4817#5.7	10.9	4.6
6.85803	11.9484	6.66435#5.7	10.9	4.6
12.1212	17.2475	9.97686#5.7	10.9	4.6
11.5367	21.4983	11.0606#5.7	10.9	4.6
7.43372	12.081	6.04828#5.7	10.9	4.6
16.2136	24.5322	13.1074#5.7	10.9	4.6
16.2136	24.5322	13.1074#5.7	10.9	4.6
14.4092	24.6866	15.3119#5.7	10.9	4.6
26.172	34.3373	19.7936#5.7	10.9	4.6
17.6902	23.5106	12.74#5.7	10.9	4.6
17.6902	23.5106	12.74#5.7	10.9	4.6
8.69678	11.1732	5.80871#5.7	10.9	4.6
8.69678	11.1732	5.80871#5.7	9.0	4.6
13.2969	23.2212	14.2802#5.7	9.0	4.6
9.25332	14.9402	7.88034#5.7	10.9	4.6
9.43069	15.8896	8.32884#5.7	10.9	4.6
9.43069	15.8896	8.32884#5.7	10.9	4.6
7.0245	10.6422	5.97926#5.7	10.9	4.6
11.3561	25.575	12.8289#5.7	10.9	4.6
9.2075	15.2375	8.55414#5.7	10.9	4.6
8.58622	14.0159	7.7852#5.7	10.9	4.6
8.55433	13.223	6.9805#5.7	9.0	4.6
6.64617	10.4652	5.18013#5.7	9.0	4.6
6.64617	10.4652	5.18013#5.7	9.0	4.6
7.09484	10.8947	6.09386#5.7	9.0	4.6
12.3068	18.7462	10.8604#5.7	9.0	4.6
12.7979	17.621	10.0608#5.7	10.9	4.6
7.01	11.2693	6.56211#5.7	10.9	4.6
7.01	11.2693	6.56211#5.7	9.0	4.6
9.20435	13.0864	8.28982#5.7	9.0	4.6
10.6926	19.8058	11.5042#5.7	9.0	4.6
13.7013	18.4868	9.95568#5.7	9.0	4.6
13.7013	18.4868	9.95568#5.7	9.0	4.6
12.6788	19.1071	9.98668#5.7	9.0	4.6
10.6409	18.2634	11.3049#5.7	9.0	4.6
6.48567	13.267	6.94863#5.7	9.0	4.6
12.1726	16.2299	9.02624#5.7	9.0	4.6
15.6241	33.4519	20.9984#5.7	10.9	4.6
19.5444	39.5085	24.2852#5.7	10.9	4.6
20.1881	27.4955	15.121#5.7	10.9	4.6
10.501	21.4808	12.3723#5.7	10.9	4.6
10.501	21.4808	12.3723#5.7	10.9	4.6
11.1531	22.6483	13.8889#5.7	10.9	4.6
13.3764	18.8808	11.317#5.7	9.0	4.6
11.498	26.3788	14.8825#5.7	9.0	4.6
9.85733	13.0431	7.57871#5.7	9.0	4.6
9.4788	14.087	8.17229#5.7	9.0	4.6
18.2652	33.9239	19.804#5.7	9.0	4.6
9.51916	13.5562	7.85918#5.7	9.0	4.6
8.78519	20.8026	10.3536#5.7	9.0	4.6
6.49188	9.32659	5.53015#5.7	9.0	4.6
9.17928	14.3907	7.84598#5.7	9.0	4.6
9.17928	14.3907	7.84598#5.7	9.0	4.6
7.27243	16.8332	8.62566#5.7	10.9	4.6
10.3843	15.1089	7.45015#5.7	10.9	4.6
11.3055	17.6907	9.87886#5.7	10.9	4.6
12.6054	18.1005	10.5397#5.7	10.9	4.6
12.6054	18.1005	10.5397#5.7	10.9	4.6
11.8482	15.4991	8.33786#5.7	10.9	4.6
8.81958	19.8519	10.6919#5.7	10.9	4.6
10.0049	22.7133	12.9858#5.7	10.9	4.6
10.2343	19.7654	10.4871#5.7	10.9	4.6
10.2343	19.7654	10.4871#5.7	10.9	4.6
7.75223	10.5925	5.9627#5.7	10.9	4.6
10.068	18.3039	9.18668#5.7	10.9	4.6
7.64938	14.8447	7.52403#5.7	10.9	4.6
9.71858	16.529	9.20042#5.7	10.9	4.6
9.21936	14.9872	8.28172#5.7	10.9	4.6
9.21936	14.9872	8.28172#5.7	10.9	4.6
11.2619	20.6952	11.7295#5.7	10.9	4.6
12.4037	20.6678	11.5274#5.7	10.9	4.6
16.2757	28.0171	16.2801#5.7	10.9	4.6
7.07112	15.1841	7.45753#5.7	10.9	4.6
7.07112	15.1841	7.45753#5.7	10.9	4.6
9.39494	15.2628	8.3745#5.7	10.9	4.6
9.84148	12.0802	6.67428#5.7	10.9	4.6
12.9867	23.6663	16.4257#5.7	10.9	4.6
7.85033	11.451	6.68846#5.7	10.9	4.6
16.9222	22.0379	12.684#5.7	10.9	4.6
17.7691	24.4509	13.8805#5.7	10.9	4.6
9.13371	15.3193	9.38261#5.7	10.9	4.6
8.57787	14.9011	7.46398#5.7	10.9	4.6
10.6326	13.9152	7.44516#5.7	10.9	4.6
8.12568	11.8225	5.84306#5.7	10.9	4.6
6.19655	9.38351	4.78643#5.7	10.9	4.6
6.50506	8.19059	4.32025#5.7	10.9	4.6
5.53142	8.766	4.99426#5.7	10.9	4.6
8.55699	18.1052	10.0088#5.7	10.9	4.6
7.51015	11.9336	6.49198#5.7	10.9	4.6
8.62631	12.6311	6.88669#5.7	10.9	4.6
8.62631	12.6311	6.88669#5.7	10.9	4.6
7.17709	13.8568	7.47073#5.7	9.0	4.6
10.2558	21.2213	12.4554#5.7	9.0	4.6
9.82368	13.4514	7.38293#5.7	9.0	4.6
10.2331	13.5883	7.21893#5.7	9.0	4.6
8.27889	17.1817	9.2433#5.7	9.0	4.6
8.27889	17.1817	9.2433#5.7	9.0	4.6
8.16344	13.5298	6.77089#5.7	9.0	4.6
5.67557	10.7981	4.57027#5.7	9.0	4.6
7.48153	14.34	8.00371#5.7	9.0	4.6
7.60466	12.6096	5.17158#5.7	9.0	4.6
7.60466	12.6096	5.17158#5.7	9.0	4.6
8.3407	11.6943	6.58928#5.7	9.0	4.6
9.69442	18.5589	11.8598#5.7	10.9	4.6
7.41749	14.4892	7.93992#5.7	10.9	4.6
10.4728	12.9994	7.59841#5.7	9.0	4.6
10.4728	12.9994	7.59841#5.7	9.0	4.6
9.04723	12.341	6.05193#5.7	9.0	4.6
8.12939	10.6397	5.35849#5.7	9.0	4.6
12.5362	18.3915	11.9753#5.7	9.0	4.6
12.5362	18.3915	11.9753#5.7	9.0	4.6
11.4713	26.4929	14.3444#5.7	9.0	4.6
10.8509	25.6275	13.3974#5.7	9.0	4.6
16.0673	24.899	12.1252#5.7	9.0	4.6
16.0673	24.899	12.1252#5.7	9.0	4.6
10.2956	14.8248	8.00266#5.7	9.0	4.6
10.8371	18.013	10.1411#5.7	9.0	4.6
9.0132	11.9824	6.35803#5.7	9.0	4.6
8.42205	13.0903	7.0692#5.7	9.0	4.6
8.42205	13.0903	7.0692#5.7	9.0	4.6
7.57789	10.2615	5.35649#5.7	9.0	4.6
8.03297	9.72375	4.9249#5.7	9.0	4.6
8.68636	12.7781	7.20326#5.7	9.0	4.6
7.68753	11.3138	5.84342#5.7	9.0	4.6
7.68753	11.3138	5.84342#5.7	10.9	4.6
8.2556	14.4655	7.71887#5.7	10.9	4.6
7.23019	12.85	7.55325#5.7	10.9	4.6
13.4317	17.1368	9.55304#5.7	10.9	4.6
6.46999	13.663	7.10661#5.7	10.9	4.6
6.46999	13.663	7.10661#5.7	10.9	4.6
6.28079	12.984	5.78853#5.7	10.9	4.6
11.5602	19.1453	10.9293#5.7	10.9	4.6
7.69152	11.6101	6.18551#5.7	10.9	4.6
14.1516	21.8572	10.7094#5.7	10.9	4.6
12.7067	18.3508	9.26043#5.7	10.9	4.6
12.7067	18.3508	9.26043#5.7	10.9	4.6
19.7951	31.6867	16.9017#5.7	10.9	4.6
11.459	17.285	10.5461#5.7	10.9	4.6
11.459	17.285	10.5461#5.7	10.9	4.6
15.0833	22.9988	13.1496#5.7	10.9	4.6
11.6369	14.6803	7.8588#5.7	10.9	4.6
10.8086	19.5305	10.7345#5.7	10.9	4.6
11.5054	17.4793	8.19869#5.7	10.9	4.6
10.2433	16.0756	8.785#5.7	10.9	4.6
10.2433	16.0756	8.785#5.7	10.9	4.6
7.8823	12.8605	7.25485#5.7	10.9	4.6
14.5301	22.6704	13.5551#5.7	10.9	4.6
8.43959	13.5787	7.39503#5.7	10.9	4.6
7.81411	12.7904	5.3191#5.7	10.9	4.6
9.34438	20.7863	9.67349#5.7	10.9	4.6
10.1709	14.4145	7.51106#5.7	10.9	4.6
8.44546	15.2442	6.12991#5.7	10.9	4.6
13.1714	20.1285	10.0701#5.7	10.9	4.6
13.8619	18.3091	11.0126#5.7	10.9	4.6
8.37349	12.0609	6.63611#5.7	10.9	4.6
12.8934	18.4053	9.9263#5.7	10.9	4.6
12.8934	18.4053	9.9263#5.7	10.9	4.6
10.0761	14.9968	8.11248#5.7	10.9	4.6
13.342	18.0876	10.6692#5.7	10.9	4.6
19.0114	42.5278	26.8068#5.7	10.9	4.6
9.68182	14.8738	7.71314#5.7	10.9	4.6
11.5657	16.0788	8.19708#5.7	10.9	4.6
11.5657	16.0788	8.19708#5.7	10.9	4.6
8.25609	11.5965	6.51259#5.7	10.9	4.6
11.3003	23.74	14.5394#5.7	10.9	4.6
19.8013	25.6181	14.5591#5.7	10.9	4.6
19.7737	27.2255	14.7938#5.7	10.9	4.6
19.7737	27.2255	14.7938#5.7	10.9	4.6
12.2447	19.4183	10.4656#5.7	10.9	4.6
13.7648	17.6287	9.56975#5.7	10.9	4.6
10.2237	12.4662	7.19996#5.7	10.9	4.6
10.0385	22.2328	12.7168#5.7	10.9	4.6
10.0385	22.2328	12.7168#5.7	10.9	4.6
13.3364	23.7686	11.6622#5.7	10.9	4.6
9.73081	18.3147	9.88552#5.7	10.9	6.9
12.1904	20.5948	10.383#5.7	10.9	6.9
12.1904	20.5948	10.383#5.7	10.9	6.9
23.4983	32.6564	18.5546#5.7	10.9	4.6
16.1425	28.4416	17.1793#5.7	10.9	4.6
12.4052	23.774	11.8938#7.6	10.9	6.9
7.31268	10.5123	5.43653#7.6	10.9	6.9
8.97692	17.9958	10.866#7.6	10.9	6.9
10.9834	15.6416	8.43123#7.6	10.9	4.6
13.1063	20.1224	12.0365#7.6	10.9	4.6
12.0773	21.3632	12.1108#7.6	10.9	4.6
12.542	23.5286	10.679#9.6	12.7	4.6
12.542	23.5286	10.679#9.6	12.7	4.6
11.5411	25.3338	14.2767#9.6	14.5	6.9
8.0964	14.2441	7.28776#9.6	14.5	6.9
14.1317	25.1217	12.3659#9.6	14.5	6.9
20.0788	30.1181	16.6666#9.6	14.5	6.9
9.0763	16.7483	8.40268#11.5	14.5	6.9
16.0555	28.5555	18.7395#11.5	14.5	6.9
13.3217	25.1187	17.1945#11.5	14.5	6.9
13.3217	25.1187	17.1945#11.5	16.3	6.9
11.0024	17.9783	9.94318#11.5	16.3	6.9
11.0024	17.9783	9.94318#13.4	20.0	6.9
14.9315	20.5686	11.9276#13.4	20.0	6.9
15.2073	22.3409	13.7856#13.4	20.0	6.9
15.2073	22.3409	13.7856#13.4	23.6	6.9
19.6117	26.17	15.0476#13.4	23.6	6.9
21.3831	26.4711	16.0006#15.3	25.4	6.9
19.4971	25.2387	15.1736#15.3	25.4	6.9
16.6602	25.1012	15.2659#15.3	25.4	6.9
14.215	23.8472	14.7555#15.3	29.0	6.9
7.3583	12.1589	6.70375#15.3	27.2	6.9
6.01089	9.53436	5.07331#15.3	27.2	6.9
10.4235	17.4531	10.3834#15.3	27.2	6.9
11.1884	16.3747	9.99102#13.4	25.4	6.9
11.6937	15.9928	9.01287#13.4	25.4	6.9
9.67207	17.3217	8.70934#13.4	25.4	6.9
12.5064	21.6141	12.0429#13.4	20.0	6.9
13.2071	17.2135	9.07385#13.4	20.0	6.9
10.0342	16.0982	8.59095#11.5	16.3	6.9
7.17494	10.9959	5.86055#11.5	16.3	6.9
21.6735	27.1317	16.2107#11.5	16.3	6.9
12.9885	19.165	11.0072#11.5	16.3	6.9
16.2201	36.8864	22.8536#11.5	16.3	6.9
18.0029	24.1554	12.9735#9.6	14.5	6.9
22.2249	31.3271	16.6041#9.6	14.5	6.9
11.9054	26.706	15.7377#9.6	14.5	6.9
14.7814	25.4655	12.5712#9.6	12.7	6.9
16.209	31.9692	17.4402#9.6	12.7	6.9
11.7278	23.5118	15.1213#9.6	12.7	6.9
10.2042	16.1839	8.94899#9.6	12.7	6.9
24.6284	36.7935	22.8217#9.6	12.7	6.9
24.6284	36.7935	22.8217#9.6	12.7	6.9
13.4009	27.2362	17.7939#7.6	12.7	6.9
14.8326	29.7803	19.9816#7.6	12.7	6.9
17.5924	27.6812	16.8718#7.6	12.7	6.9
26.4109	46.9022	31.5722#7.6	12.7	6.9
16.873	35.3157	23.5717#7.6	12.7	6.9
14.5306	28.9928	19.1751#7.6	12.7	6.9
13.0308	18.9688	10.7703#7.6	12.7	6.9
20.3868	30.1113	16.8467#7.6	12.7	6.9
13.1866	25.5349	12.8271#7.6	12.7	6.9
11.4144	20.1837	10.0268#7.6	12.7	6.9
16.9822	26.5515	16.4513#7.6	10.9	6.9
16.9822	26.5515	16.4513#7.6	10.9	6.9
21.3878	50.2313	30.8875#7.6	10.9	6.9
13.6011	19.5848	11.4766#7.6	10.9	6.9
14.8897	25.5617	14.3022#7.6	10.9	6.9
16.0842	27.2347	15.5442#7.6	10.9	6.9
17.5925	28.2391	15.7874#7.6	10.9	6.9
9.18205	15.9654	9.09602#7.6	10.9	6.9
9.57797	17.0411	9.81773#7.6	10.9	6.9
11.5275	19.6245	10.8561#7.6	10.9	6.9
11.5275	19.6245	10.8561#7.6	10.9	6.9
12.8483	16.5427	9.38676#5.7	10.9	4.6
16.1816	36.1322	21.9857#5.7	10.9	4.6
17.7909	40.9012	24.0123#5.7	10.9	4.6
8.6573	25.2739	11.1707#7.6	10.9	6.9
13.7655	20.9672	10.6583#7.6	10.9	6.9
10.4938	19.6476	10.5218#7.6	10.9	6.9
7.65919	14.9659	8.14582#7.6	10.9	6.9
7.92088	18.0143	8.64343#7.6	10.9	4.6
9.16066	11.0319	6.30597#7.6	10.9	4.6
9.71048	17.6889	8.75661#7.6	10.9	6.9
13.6082	22.0149	12.5425#7.6	10.9	6.9
17.2332	26.0628	15.2213#7.6	10.9	6.9
17.4632	36.0022	24.4359#5.7	10.9	4.6
11.7899	18.1268	9.91641#5.7	10.9	4.6
9.41093	15.3708	7.64775#5.7	10.9	4.6
7.56003	15.4221	8.8249#7.6	10.9	6.9
14.7363	24.2032	12.7628#7.6	10.9	6.9
10.3473	13.9261	7.62766#7.6	10.9	6.9
9.49756	13.9833	8.11194#7.6	10.9	6.9
12.3718	17.2696	10.2828#7.6	10.9	6.9
9.2441	13.1395	6.90796#7.6	10.9	6.9
15.6711	18.7014	11.3021#7.6	10.9	6.9
15.7836	32.9545	21.4372#7.6	10.9	6.9
9.34676	18.4333	11.535#7.6	10.9	6.9
8.97798	16.6819	10.0642#7.6	10.9	6.9
13.6369	24.8253	12.0897#7.6	10.9	6.9
10.9262	20.0597	13.4392#7.6	10.9	4.6
10.9262	20.0597	13.4392#7.6	10.9	4.6
14.59	22.1375	11.3479#7.6	10.9	6.9
12.1613	20.8842	10.3259#7.6	10.9	6.9
9.12488	14.0433	7.18368#7.6	10.9	6.9
9.12488	14.0433	7.18368#7.6	10.9	6.9
7.03389	10.9694	5.90017#7.6	10.9	6.9
10.2034	15.4583	7.53541#7.6	10.9	6.9
11.6513	20.4914	9.46532#7.6	10.9	6.9
19.6447	30.3322	15.0166#7.6	10.9	6.9
19.6447	30.3322	15.0166#7.6	10.9	6.9
16.1169	24.8648	12.3414#7.6	10.9	6.9
14.5715	20.0317	10.5279#7.6	10.9	6.9
14.5715	20.0317	10.5279#7.6	10.9	6.9
7.60474	10.2926	5.73512#7.6	10.9	4.6
7.63851	13.6601	8.11972#7.6	10.9	4.6
7.63851	13.6601	8.11972#7.6	10.9	4.6
9.22826	20.0058	10.6503#7.6	10.9	4.6
12.641	21.0562	9.53778#7.6	10.9	4.6
13.3597	20.7287	11.9044#7.6	10.9	4.6
11.417	21.2891	10.9559#7.6	10.9	6.9
11.7483	23.4499	10.3155#7.6	10.9	6.9
11.7155	15.5406	8.59334#7.6	10.9	6.9
18.5096	24.8889	13.3855#9.6	12.7	6.9
10.2854	16.4064	9.6448#9.6	12.7	6.9
10.1259	17.3048	11.6301#9.6	12.7	6.9
11.5915	21.6577	12.2231#9.6	12.7	6.9
12.222	15.6433	8.84092#9.6	14.5	6.9
7.97651	14.5988	8.10943#9.6	14.5	6.9
16.2744	25.711	14.9147#9.6	14.5	6.9
18.0966	27.8106	16.3715#9.6	14.5	6.9
15.8066	32.6034	21.0322#9.6	14.5	6.9
11.3141	19.581	10.9715#9.6	14.5	6.9
13.1362	19.1983	12.521#9.6	14.5	6.9
17.1204	22.878	12.2559#11.5	14.5	6.9
17.486	24.8432	13.1711#11.5	14.5	6.9
26.4562	34.9087	21.0902#11.5	14.5	6.9
14.101	23.172	14.1248#11.5	14.5	6.9
14.101	23.172	14.1248#11.5	14.5	6.9
12.8985	23.2265	14.4531#11.5	14.5	6.9
9.85613	12.4178	6.93029#11.5	14.5	6.9
12.7319	18.7407	11.0568#11.5	16.3	6.9
15.2995	31.3733	21.0152#13.4	18.1	6.9
14.4126	28.3997	18.6323#13.4	18.1	6.9
14.4126	28.3997	18.6323#13.4	18.1	6.9
14.7037	25.3635	13.6259#15.3	20.0	6.9
15.2803	38.8174	21.4488#15.3	20.0	6.9
16.6071	38.7873	23.3302#15.3	20.0	6.9
9.32955	15.2624	8.86123#15.3	23.6	6.9
12.2101	26.7299	15.6629#15.3	23.6	6.9
9.07259	18.3698	10.5788#15.3	25.4	6.9
9.07259	18.3698	10.5788#15.3	25.4	6.9
11.1448	23.3027	12.3489#15.3	25.4	6.9
17.4907	27.4659	15.2229#15.3	27.2	6.9
20.7093	28.4739	15.8894#15.3	27.2	6.9
12.6224	16.2602	10.1176#17.3	27.2	6.9
14.6819	19.1226	12.0406#17.3	27.2	6.9
13.5352	19.9513	11.5474#17.3	27.2	6.9
16.8249	22.8779	12.9537#15.3	25.4	9.3
32.4526	42.3902	25.6801#15.3	25.4	9.3
14.9207	25.1535	16.8904#13.4	20.0	6.9
11.8367	20.4145	13.6846#13.4	20.0	6.9
10.8859	14.0927	7.23099#13.4	20.0	6.9
16.3538	23.9004	13.1658#11.5	18.1	6.9
11.7505	14.4534	8.31534#11.5	18.1	6.9
12.9151	19.3686	9.40247#11.5	18.1	6.9
8.63575	19.5574	8.75611#11.5	14.5	6.9
8.66815	15.4842	6.39313#11.5	14.5	6.9
15.9073	32.4373	18.6785#11.5	14.5	6.9
15.9073	32.4373	18.6785#11.5	14.5	6.9
11.9464	22.657	15.1924#11.5	14.5	6.9
10.2301	20.273	12.9145#9.6	14.5	6.9
19.2895	25.9631	15.9746#9.6	14.5	6.9
7.84771	12.8974	8.37747#9.6	12.7	6.9
9.53044	15.5913	9.82355#9.6	12.7	6.9
14.6906	31.7097	20.5526#9.6	12.7	6.9
26.0224	35.7636	19.4944#9.6	12.7	6.9
18.5311	27.3461	13.855#9.6	12.7	6.9
18.5311	27.3461	13.855#9.6	12.7	6.9
19.5651	28.719	15.064#9.6	12.7	6.9
12.5962	22.6206	14.804#9.6	12.7	6.9
12.5962	22.6206	14.804#9.6	12.7	6.9
16.7136	25.08	15.2572#9.6	12.7	6.9
11.1102	22.9442	13.5687#9.6	12.7	6.9
15.0254	27.1491	16.1006#9.6	10.9	6.9
17.5895	28.3929	15.8913#9.6	10.9	6.9
17.5895	28.3929	15.8913#7.6	12.7	4.6
22.8854	29.8437	17.1896#7.6	12.7	4.6
15.9688	21.7601	13.1011#7.6	12.7	4.6
30.9158	49.1332	27.4783#7.6	10.9	4.6
30.9158	49.1332	27.4783#7.6	10.9	4.6
33.0858	49.3466	27.4979#7.6	12.7	4.6
33.2406	53.1793	27.2518#7.6	12.7	4.6
22.879	28.3569	17.4173#7.6	12.7	4.6
30.5391	62.8811	40.7303#7.6	12.7	4.6
30.5391	62.8811	40.7303#7.6	10.9	6.9
19.3597	47.7299	27.036#7.6	10.9	6.9
20.0126	46.8721	28.2896#7.6	10.9	6.9
20.0126	46.8721	28.2896#7.6	10.9	6.9
18.6092	26.149	14.7921#7.6	10.9	6.9
8.21475	11.4454	6.42629#7.6	10.9	4.6
12.4334	20.6876	10.7473#7.6	10.9	4.6
19.6729	38.032	17.1009#7.6	10.9	4.6
19.6729	38.032	17.1009#7.6	10.9	4.6
11.1683	24.5574	12.0129#7.6	10.9	4.6
25.5199	38.3726	20.0578#7.6	9.0	4.6
23.4721	32.0896	18.4488#7.6	9.0	4.6
19.5063	35.818	21.5654#7.6	9.0	4.6
19.5063	35.818	21.5654#7.6	9.0	4.6
14.5962	24.0078	12.9531#7.6	9.0	4.6
18.4852	25.8326	14.4478#7.6	10.9	4.6
22.2304	31.1719	18.1368#7.6	10.9	4.6
22.2304	31.1719	18.1368#7.6	10.9	4.6
10.5602	19.6069	12.7465#7.6	9.0	4.6
17.1681	23.2997	13.1461#7.6	9.0	4.6
16.3637	23.2134	12.6033#7.6	9.0	4.6
8.66211	16.8611	8.62638#7.6	9.0	4.6
22.6167	37.0643	19.5978#7.6	9.0	4.6
22.6167	37.0643	19.5978#7.6	9.0	4.6
22.6167	37.0643	19.5978#7.6	9.0	4.6
20.4942	32.0642	17.409#7.6	9.0	4.6
10.0114	14.2239	8.32413#7.6	9.0	4.6
10.0114	14.2239	8.32413#7.6	9.0	4.6
10.0114	14.2239	8.32413#7.6	9.0	4.6
11.794	19.4017	9.93071#7.6	9.0	4.6
11.9904	22.194	11.8323#7.6	9.0	4.6
18.8324	32.928	19.0716#7.6	9.0	4.6
10.9177	16.9986	10.0133#7.6	9.0	4.6
10.9177	16.9986	10.0133#7.6	10.9	4.6
13.8065	24.7496	14.0483#7.6	10.9	4.6
9.54541	15.5834	7.56662#7.6	10.9	4.6
9.54541	15.5834	7.56662#7.6	10.9	4.6
9.65381	15.6668	7.17007#7.6	10.9	4.6
10.9645	21.2517	11.1916#7.6	9.0	4.6
10.9645	21.2517	11.1916#7.6	9.0	4.6
12.6594	19.4484	11.8902#7.6	9.0	4.6
14.1109	23.3959	13.9425#7.6	9.0	4.6
11.5896	19.3794	11.5803#7.6	9.0	4.6
14.8109	20.5824	11.5577#7.6	9.0	4.6
10.3292	20.1107	12.336#7.6	9.0	4.6
10.7491	20.8649	13.0537#7.6	9.0	4.6
13.7753	19.5409	11.1424#7.6	9.0	4.6
13.7753	19.5409	11.1424#7.6	10.9	4.6
8.83578	10.8307	5.79703#7.6	10.9	4.6
6.77677	9.63857	4.5085#7.6	10.9	4.6
9.64807	15.6837	8.58578#7.6	9.0	4.6
7.15024	12.0234	6.06716#7.6	9.0	4.6
7.15024	12.0234	6.06716#7.6	9.0	4.6
14.6684	21.104	11.2674#7.6	9.0	4.6
14.2935	19.3116	10.356#7.6	9.0	4.6
12.8595	22.22	11.3779#7.6	9.0	4.6
10.7808	20.6709	10.4989#7.6	9.0	4.6
7.55186	18.8154	8.26526#7.6	9.0	4.6
9.03672	15.2231	6.88232#7.6	9.0	4.6
9.1347	16.3152	7.55926#7.6	9.0	4.6
9.21626	17.8046	8.7426#7.6	9.0	4.6
6.08651	12.9578	5.83526#7.6	9.0	4.6
9.34398	16.7608	8.41917#7.6	9.0	4.6
9.34398	16.7608	8.41917#7.6	10.9	4.6
10.426	16.8022	9.62411#7.6	10.9	4.6
10.903	16.8341	9.61755#7.6	10.9	4.6
12.1328	18.2493	10.8485#7.6	10.9	4.6
12.1328	18.2493	10.8485#7.6	9.0	4.6
12.5612	17.9295	9.70373#7.6	9.0	4.6
15.7207	30.0819	20.9341#7.6	9.0	4.6
12.1177	16.8728	8.83912#7.6	9.0	4.6
13.0665	26.4439	16.2778#7.6	9.0	4.6
15.9851	22.472	13.0802#7.6	9.0	4.6
11.7934	21.242	12.26#7.6	9.0	4.6
22.1519	32.4813	17.1869#7.6	9.0	4.6
9.09189	19.3913	10.8299#7.6	10.9	4.6
9.09189	19.3913	10.8299#7.6	10.9	4.6
8.97013	18.5807	9.43689#7.6	10.9	4.6
10.9395	19.9452	10.8046#7.6	9.0	4.6
19.7391	30.3345	15.4448#7.6	9.0	4.6
9.11407	16.6529	7.00722#7.6	9.0	4.6
9.11407	16.6529	7.00722#7.6	9.0	4.6
7.99084	15.6182	7.8413#7.6	9.0	4.6
10.2586	16.1488	10.0471#7.6	9.0	4.6
20.5067	33.0518	18.6061#7.6	9.0	4.6
20.5067	33.0518	18.6061#7.6	9.0	4.6
26.3735	37.0694	21.7212#7.6	9.0	4.6
11.5889	15.9239	9.29377#7.6	9.0	4.6
10.4746	23.2156	12.7527#7.6	10.9	4.6
10.0263	13.1993	8.16683#7.6	10.9	4.6
7.33271	12.2258	5.65892#7.6	10.9	4.6
16.1129	29.2833	20.0352#9.6	10.9	4.6
16.1129	29.2833	20.0352#9.6	10.9	4.6
12.2976	20.1827	9.45514#9.6	10.9	4.6
15.044	33.2887	19.2822#9.6	10.9	4.6
18.1735	34.9258	22.1546#9.6	10.9	4.6
14.1868	27.4688	17.7867#9.6	10.9	4.6
16.087	22.6289	12.846#9.6	10.9	4.6
16.087	22.6289	12.846#11.5	10.9	4.6
15.6939	24.9005	13.8463#11.5	10.9	4.6
25.7361	36.0015	19.7005#11.5	10.9	4.6
13.1098	22.8522	12.995#15.3	12.7	4.6
13.1098	22.8522	12.995#15.3	12.7	4.6
13.6808	18.4834	9.85216#15.3	14.5	4.6
20.1138	29.0679	15.1174#15.3	14.5	4.6
3.87225	5.79013	2.12891#15.3	14.5	4.6
24.1929	45.417	25.6497#15.3	14.5	4.6
24.1929	45.417	25.6497#15.3	14.5	4.6
23.5765	44.3408	26.6918#15.3	14.5	4.6
7.82936	16.8625	9.70279#17.3	16.3	4.6
11.5793	20.3932	11.4381#17.3	16.3	4.6
24.8238	44.3603	26.4501#19.2	16.3	4.6
24.8238	44.3603	26.4501#19.2	16.3	4.6
17.5916	32.4417	20.5466#19.2	16.3	4.6
12.556	25.7559	16.5434#19.2	16.3	4.6
6.26543	13.6673	6.53951#19.2	16.3	4.6
19.1193	37.8023	19.9873#19.2	16.3	4.6
18.233	36.6914	19.3058#19.2	16.3	4.6
28.4475	43.4102	25.1156#19.2	16.3	4.6
28.9112	35.4347	22.3307#19.2	14.5	4.6
16.9197	20.1781	12.353#19.2	14.5	4.6
16.9197	20.1781	12.353#19.2	14.5	4.6
16.2673	32.9174	21.964#17.3	14.5	4.6
24.6348	45.2772	28.7621#17.3	14.5	4.6
24.6348	45.2772	28.7621#17.3	14.5	4.6
13.0744	26.3031	17.3927#17.3	12.7	4.6
29.7429	43.1334	23.8548#17.3	12.7	4.6
37.9804	53.2147	29.3133#17.3	12.7	4.6
37.9804	53.2147	29.3133#15.3	12.7	4.6
34.4245	46.1599	26.5314#15.3	12.7	4.6
21.8482	32.5216	17.9844#15.3	12.7	4.6
8.53754	20.1282	7.88254#15.3	12.7	4.6
15.4812	39.1614	18.4504#15.3	12.7	4.6
15.4812	39.1614	18.4504#15.3	12.7	4.6
20.5815	34.0531	21.9266#15.3	12.7	4.6
19.5154	44.2799	27.5652#15.3	12.7	4.6
17.4253	37.702	24.7911#15.3	12.7	4.6
15.083	29.6998	15.5719#15.3	12.7	4.6
9.7124	15.2522	8.31634#15.3	12.7	4.6
9.85536	12.8377	7.15645#15.3	12.7	4.6
8.6692	17.3989	9.88258#15.3	12.7	4.6
7.23678	14.6418	5.35034#15.3	12.7	4.6
13.7302	23.0999	11.8466#15.3	12.7	4.6
13.7302	23.0999	11.8466#15.3	12.7	4.6
9.35378	19.7433	11.396#15.3	12.7	4.6
9.51387	20.0287	12.2179#13.4	10.9	4.6
8.49826	18.8977	10.9646#13.4	10.9	4.6
13.3123	22.9679	13.7465#11.5	10.9	4.6
18.9813	25.3112	15.1616#11.5	10.9	4.6
18.9813	25.3112	15.1616#11.5	10.9	4.6
7.08285	14.5695	7.52237#11.5	10.9	4.6
15.5864	22.049	11.3877#11.5	10.9	4.6
15.5864	22.049	11.3877#9.6	9.0	4.6
18.9861	28.7225	15.8885#9.6	9.0	4.6
19.2199	31.3165	19.1578#9.6	9.0	4.6
20.3425	32.1432	19.0575#9.6	9.0	4.6
9.3491	17.0468	10.303#9.6	9.0	4.6
12.0736	18.848	11.9224#9.6	9.0	4.6
23.4653	30.8154	18.2085#9.6	9.0	4.6
23.4653	30.8154	18.2085#9.6	9.0	4.6
14.8821	23.1358	11.0876#9.6	9.0	4.6
17.6554	28.636	14.324#9.6	9.0	4.6
14.7404	20.4154	10.8155#9.6	9.0	4.6
13.6555	19.4501	11.6769#9.6	9.0	4.6
15.7022	24.6517	13.5777#9.6	9.0	4.6
19.1145	27.3183	17.1313#9.6	9.0	4.6
19.1145	27.3183	17.1313#9.6	7.2	4.6
7.94846	11.466	6.80716#7.6	7.2	4.6
10.7063	15.5852	9.10904#7.6	7.2	4.6
21.9726	27.6256	16.4473#7.6	7.2	4.6
22.3146	30.0259	17.4623#7.6	7.2	4.6
16.6134	33.8237	22.9705#7.6	7.2	4.6
23.984	33.0541	18.105#7.6	7.2	4.6
18.6938	30.8991	17.9611#7.6	7.2	4.6
15.653	25.6474	15.5583#7.6	7.2	4.6
16.3714	28.8507	17.2188#7.6	7.2	4.6
9.794	22.1932	11.2274#7.6	7.2	4.6
14.7828	24.0436	11.3914#7.6	7.2	4.6
9.42909	23.2929	11.3853#7.6	7.2	4.6
15.5773	20.0742	11.5202#7.6	7.2	4.6
15.0487	20.4135	12.2334#7.6	7.2	4.6
13.6013	27.4312	18.2259#7.6	7.2	4.6
17.4953	28.7736	17.5151#7.6	7.2	4.6
20.016	28.5072	17.5438#7.6	7.2	4.6
15.7141	24.8065	16.6799#7.6	7.2	4.6
18.4895	23.9857	13.8098#7.6	7.2	4.6
18.4895	23.9857	13.8098#7.6	7.2	4.6
19.6712	23.6789	14.6425#7.6	7.2	4.6
17.5076	23.5818	14.4239#7.6	7.2	4.6
13.6584	21.2134	13.1052#7.6	7.2	4.6
10.3989	18.4241	11.2083#7.6	7.2	4.6
10.3989	18.4241	11.2083#7.6	7.2	4.6
12.0531	21.2631	11.9952#7.6	7.2	4.6
36.8195	56.1797	31.4951#7.6	7.2	4.6
9.08502	18.5905	11.3638#7.6	7.2	4.6
18.4711	30.3084	17.0384#7.6	7.2	4.6
10.8899	14.4215	7.56795#7.6	7.2	4.6
7.16717	19.1848	8.38453#7.6	7.2	4.6
9.7025	15.1605	8.53261#7.6	5.4	4.6
13.8542	23.8495	14.7474#7.6	5.4	4.6
19.91	30.2099	18.1875#7.6	5.4	4.6
19.7467	31.4766	18.9776#7.6	5.4	4.6
19.7467	31.4766	18.9776#7.6	5.4	2.3
21.6275	32.4111	18.9413#7.6	5.4	2.3
19.5954	30.2423	18.4741#7.6	5.4	2.3
16.0163	24.8132	15.2877#7.6	5.4	2.3
26.3012	36.4938	21.8684#7.6	5.4	2.3
7.28676	12.3166	6.93584#7.6	5.4	2.3
