19.521	33.8362	19.5414#17.3	10.9	6.9
19.7192	34.1802	19.753#17.3	10.9	6.9
20.0996	34.8402	20.1591#28.8	10.9	6.9
20.4243	35.4036	20.5058#57.6	10.9	6.9
20.8791	36.1928	20.9915#57.6	10.9	6.9
21.3536	37.0162	21.4981#57.6	10.9	6.9
21.8501	37.8777	22.0282#57.6	10.9	6.9
22.3702	38.7802	22.5836#71.1	9.0	6.9
22.8893	39.681	23.1379#71.1	9.0	6.9
23.2716	40.3443	23.546#80.7	10.9	6.9
23.5551	40.8363	23.8488#80.7	10.9	6.9
23.5919	40.9001	23.8881#88.4	10.9	6.9
23.5485	40.8249	23.8418#88.4	10.9	6.9
23.4249	40.6103	23.7098#88.4	10.9	6.9
23.2872	40.3713	23.5627#94.2	10.9	6.9
23.2715	40.3441	23.5459#94.2	10.9	6.9
23.3356	40.4553	23.6144#94.2	9.0	6.9
23.4627	40.676	23.7502#94.2	9.0	6.9
23.6535	41.0069	23.9538#94.2	9.0	6.9
23.7525	41.1788	24.0596#94.2	9.0	6.9
23.6761	41.0463	23.978#96.1	9.0	6.9
23.4428	40.6414	23.7289#96.1	9.0	6.9
23.0519	39.963	23.3114#96.1	9.0	6.9
22.5578	39.1058	22.784#96.1	9.0	6.9
22.0885	38.2914	22.2828#96.1	9.0	6.9
21.7274	37.6649	21.8973#96.1	10.9	6.9
21.4216	37.1342	21.5708#96.1	10.9	6.9
20.9985	36.4	21.119#96.1	10.9	6.9
20.5295	35.5863	20.6182#98.0	9.0	6.9
20.0974	34.8364	20.1568#98.0	9.0	6.9
19.7005	34.1478	19.7331#98.0	9.0	6.9
19.4123	33.6476	19.4253#98.0	9.0	6.9
19.1685	33.2246	19.165#98.0	9.0	6.9
18.8695	32.7058	18.8457#98.0	9.0	6.9
18.5804	32.2041	18.537#98.0	9.0	6.9
18.258	31.6447	18.1928#98.0	9.0	6.9
18.0228	31.2365	17.9416#98.0	9.0	6.9
17.7701	30.798	17.6718#98.0	9.0	6.9
17.6157	30.5302	17.507#98.0	9.0	6.9
17.5591	30.432	17.4465#98.0	9.0	6.9
17.4858	30.3047	17.3683#98.0	9.0	6.9
17.3955	30.1481	17.2719#98.0	9.0	6.9
17.1777	29.7701	17.0393#98.0	9.0	6.9
17.0868	29.6124	16.9422#98.0	9.0	6.9
17.0542	29.5559	16.9075#98.0	9.0	6.9
17.0798	29.6003	16.9348#98.0	9.0	6.9
17.0829	29.6057	16.9381#98.0	9.0	6.9
17.0454	29.5405	16.898#98.0	10.9	6.9
16.8487	29.1992	16.688#98.0	10.9	6.9
16.5371	28.6586	16.3553#98.0	10.9	6.9
16.1097	27.917	15.8989#98.0	10.9	6.9
15.6138	27.0565	15.3695#98.0	10.9	6.9
15.0113	26.0109	14.7261#98.0	10.9	6.9
14.3748	24.9065	14.0464#98.0	10.9	6.9
13.7022	23.7394	13.3283#98.0	10.9	6.9
13.0696	22.6418	12.6529#98.0	10.9	6.9
13.2802	22.3802	12.3367#98.0	10.9	6.9
13.6989	22.4403	12.2087#96.1	9.0	6.9
14.0849	22.4868	12.0831#96.1	9.0	6.9
14.4509	22.5273	11.9608#96.1	10.9	6.9
14.9089	22.8127	12.0103#96.1	10.9	6.9
15.2686	23.0049	12.0216#92.3	10.9	6.9
15.5312	23.1046	11.9949#92.3	10.9	6.9
15.8072	23.1907	11.9507#92.3	10.9	6.9
16.055	23.2233	11.8723#80.7	9.0	6.9
16.2186	23.1884	11.772#80.7	9.0	6.9
16.2986	23.086	11.6493#80.7	9.0	6.9
16.38	23.015	11.553#80.7	9.0	6.9
16.5545	23.0027	11.4674#40.3	9.0	6.9
16.8471	23.0952	11.4216#40.3	9.0	6.9
16.6959	22.9753	11.307#13.4	10.9	6.9
16.2985	22.7193	11.1349#13.4	10.9	6.9
15.9286	22.46	10.9542#13.4	10.9	6.9
15.4276	22.0603	10.6936#9.6	9.0	6.9
14.9906	21.7495	10.4763#7.6	9.0	6.9
14.569	21.6189	10.3855#7.6	9.0	6.9
14.1614	21.6682	10.421#7.6	9.0	6.9
13.8064	21.9272	10.6045#7.6	9.0	6.9
13.4177	22.2408	10.8456#7.6	10.9	6.9
13.0325	22.4194	11.0009#7.6	10.9	6.9
12.7351	22.7583	11.2641#7.6	10.9	6.9
12.5717	23.2563	11.6328#5.7	10.9	6.9
12.5151	23.7393	11.9877#5.7	10.9	6.9
12.5161	24.2464	12.3636#5.7	10.9	6.9
12.5776	24.7217	12.7284#5.7	10.9	6.9
12.656	25.1554	13.0593#5.7	9.0	6.9
12.7516	25.5489	13.3575#5.7	9.0	6.9
12.8032	25.7214	13.4971#5.7	9.0	6.9
12.8839	26.0024	13.7071#5.7	9.0	6.9
12.9193	26.1786	13.8469#5.7	9.0	6.9
12.9112	26.2322	13.9047#5.7	9.0	6.9
12.9805	26.2289	13.9001#5.7	9.0	6.9
13.1115	26.2562	13.894#3.8	9.0	6.9
13.3045	26.3141	13.8864#3.8	9.0	6.9
13.5095	26.3998	13.8779#3.8	9.0	6.9
13.728	26.7645	14.0651#5.7	10.9	6.9
13.9711	27.1619	14.2536#5.7	10.9	6.9
14.1898	27.4718	14.369#5.7	10.9	6.9
14.4285	27.6759	14.4049#3.8	9.0	6.9
14.6881	27.7748	14.3615#3.8	9.0	6.9
14.9516	27.6554	14.1644#3.8	9.0	6.9
15.2008	27.5894	14.0182#3.8	9.0	6.9
15.4778	27.6027	13.9409#3.8	9.0	6.9
15.7607	27.6236	13.8804#3.8	9.0	6.9
16.1622	27.9616	14.0305#3.8	9.0	6.9
16.4887	28.1808	14.124#3.8	9.0	6.9
16.8904	28.4061	14.2108#3.8	9.0	6.9
17.2964	28.6867	14.3299#3.8	9.0	6.9
17.71	29.1074	14.5498#3.8	9.0	6.9
18.0189	29.5751	14.831#3.8	9.0	6.9
18.2547	30.0252	15.1067#3.8	9.0	6.9
18.4583	30.4121	15.3467#3.8	9.0	6.9
18.8055	30.7603	15.5433#3.8	9.0	6.9
19.1253	31.0081	15.6829#3.8	9.0	6.9
19.4187	31.1562	15.766#3.8	9.0	6.9
19.6867	31.1637	15.7593#3.8	9.0	6.9
19.8685	31.0431	15.6691#3.8	9.0	6.9
20.1455	30.9481	15.5653#3.8	9.0	6.9
20.4744	31.1731	15.687#3.8	9.0	6.9
20.666	31.2524	15.7205#3.8	9.0	6.9
20.7144	31.1702	15.6486#3.8	9.0	6.9
20.7024	31.0031	15.5082#3.8	9.0	6.9
20.759	30.8107	15.3295#3.8	9.0	6.9
20.6964	30.4699	15.0591#3.8	9.0	6.9
20.5144	29.9797	14.6961#3.8	9.0	6.9
20.3148	29.3548	14.2553#3.8	9.0	6.9
20.2665	28.8376	13.8785#3.8	9.0	6.9
20.2734	28.3431	13.52#3.8	9.0	6.9
20.4434	28.0393	13.2761#3.8	9.0	6.9
20.6186	27.8951	13.1736#3.8	9.0	6.9
20.7166	27.9279	13.2186#3.8	9.0	6.9
20.8284	28.046	13.3135#3.8	9.0	6.9
20.9103	28.1841	13.4205#3.8	9.0	4.6
20.9627	28.3425	13.5402#3.8	9.0	4.6
21.0291	28.5254	13.6835#3.8	9.0	4.6
21.1734	28.8704	13.9313#3.8	9.0	4.6
21.4049	29.2504	14.1957#3.8	9.0	4.6
21.6203	29.7661	14.5755#3.8	9.0	6.9
21.8228	30.2183	14.9201#3.8	9.0	6.9
21.9209	30.5585	15.1927#3.8	9.0	6.9
21.8859	30.731	15.3642#3.8	9.0	6.9
21.8169	30.8522	15.4845#3.8	9.0	6.9
21.72	30.9257	15.5712#3.8	9.0	6.9
21.5466	31.0013	15.683#3.8	9.0	6.9
21.3449	31.0535	15.7837#5.7	9.0	6.9
21.0787	31.1399	15.9302#5.7	9.0	6.9
20.754	31.2361	16.1024#5.7	9.0	6.9
20.4288	31.3089	16.2587#5.7	9.0	6.9
20.1827	31.4306	16.428#5.7	9.0	6.9
19.9573	31.4935	16.5505#3.8	9.0	6.9
19.7519	31.498	16.6265#3.8	9.0	6.9
19.5737	31.4294	16.6383#3.8	9.0	6.9
19.3677	31.2906	16.5867#3.8	9.0	6.9
19.1007	31.0478	16.4572#5.7	9.0	4.6
18.75	30.7227	16.27#5.7	9.0	4.6
18.3711	30.3416	16.0316#5.7	9.0	4.6
18.0243	29.9087	15.756#3.8	9.0	4.6
17.74	29.7715	15.6973#3.8	9.0	6.9
17.421	29.5595	15.6067#3.8	9.0	6.9
17.0597	29.1797	15.4178#5.7	9.0	6.9
16.6334	28.8366	15.281#5.7	9.0	6.9
16.1165	28.5595	15.2012#5.7	9.0	6.9
15.7141	28.281	15.0724#5.7	9.0	6.9
15.3496	27.9628	14.8916#5.7	9.0	6.9
15.0247	27.5864	14.6609#5.7	9.0	6.9
14.59	27.0963	14.3839#5.7	9.0	6.9
14.0621	26.5413	14.0841#5.7	9.0	6.9
13.5616	26.0511	13.8258#5.7	9.0	6.9
13.0822	25.6522	13.6211#5.7	9.0	6.9
12.4273	25.0659	13.3163#5.7	9.0	6.9
11.8209	24.4735	12.9852#5.7	9.0	6.9
11.1732	23.8437	12.6289#5.7	9.0	6.9
10.6576	23.4367	12.398#5.7	9.0	6.9
10.2887	23.2473	12.2903#5.7	9.0	6.9
9.78149	22.8906	12.0888#5.7	9.0	6.9
9.46799	22.7534	11.9968#7.6	9.0	6.9
9.09306	22.5981	11.9123#7.6	9.0	6.9
8.79532	22.5946	11.9179#7.6	9.0	6.9
8.60949	22.7327	12.0135#5.7	9.0	6.9
8.33846	22.6909	12.0141#5.7	9.0	6.9
8.00362	22.4494	11.9063#5.7	9.0	6.9
7.73199	22.2862	11.8546#5.7	9.0	6.9
7.52267	22.2008	11.8588#5.7	9.0	6.9
7.44682	22.1096	11.8374#5.7	9.0	6.9
7.53049	21.9352	11.7196#7.6	9.0	6.9
7.63054	21.5672	11.4765#7.6	9.0	6.9
7.90414	21.2158	11.2117#5.7	9.0	6.9
8.3522	20.8799	10.9242#5.7	9.0	6.9
8.90783	20.6557	10.7081#5.7	9.0	6.9
9.4838	20.4956	10.5501#5.7	9.0	6.9
10.0821	20.399	10.4499#5.7	9.0	6.9
10.8201	20.5	10.4891#5.7	9.0	6.9
11.6701	20.7939	10.6642#5.7	9.0	6.9
12.5857	21.2868	10.9666#5.7	9.0	4.6
13.3814	21.6207	11.1744#5.7	9.0	4.6
14.06	21.7967	11.2884#7.6	9.0	6.9
14.4293	21.803	11.3451#7.6	9.0	6.9
13.3233	21.1195	11.2304#7.6	9.0	6.9
12.2059	20.2916	10.996#7.6	9.0	6.9
11.2922	19.5576	10.755#7.6	9.0	6.9
11.4686	19.8636	10.9433#7.6	9.0	6.9
11.5437	19.9939	11.0235#7.6	9.0	6.9
11.4897	19.9002	10.9659#7.6	9.0	6.9
11.3839	20.0983	11.0991#7.6	9.0	6.9
11.1649	20.3695	11.2853#9.6	9.0	6.9
11.0746	20.5735	11.4215#9.6	9.0	6.9
11.1126	20.7109	11.5082#9.6	9.0	6.9
11.368	20.8534	11.5869#11.5	10.9	6.9
11.654	21.1273	11.7489#11.5	10.9	6.9
11.817	21.4152	11.9262#11.5	10.9	6.9
12.1	21.973	12.2714#11.5	10.9	6.9
12.44	22.5946	12.6548#11.5	10.9	6.9
12.6708	23.0371	12.9284#11.5	10.9	6.9
12.7931	23.3021	13.093#9.6	9.0	6.9
12.8938	23.3634	13.1274#9.6	9.0	6.9
12.6774	23.0468	12.9343#9.6	9.0	6.9
12.3315	22.695	12.7252#9.6	10.9	6.9
12.0662	22.226	12.4363#9.6	10.9	6.9
11.8067	21.7262	12.1273#9.6	10.9	6.9
11.6987	21.5502	12.0194#9.6	10.9	6.9
11.8445	21.5834	12.0332#9.6	10.9	6.9
12.2102	21.7549	12.1251#9.6	10.9	6.9
12.6036	21.9681	12.2424#9.6	10.9	6.9
13.051	22.6094	12.633#7.6	9.0	6.9
13.6239	23.6036	13.2448#7.6	9.0	6.9
14.1801	24.5686	13.8386#7.6	9.0	6.9
14.5682	25.2421	14.253#7.6	9.0	6.9
14.7489	25.5557	14.446#9.6	10.9	6.9
14.7701	25.5925	14.4686#9.6	10.9	6.9
14.7474	25.5531	14.4444#9.6	9.0	6.9
14.6659	25.4116	14.3573#9.6	9.0	6.9
14.6127	25.3194	14.3006#9.6	9.0	6.9
14.4546	25.045	14.1317#9.6	10.9	6.9
14.3753	24.9073	14.047#9.6	10.9	6.9
14.2913	24.7616	13.9573#9.6	10.9	6.9
14.1882	24.5827	13.8473#9.6	9.0	6.9
14.0029	24.2612	13.6494#9.6	9.0	6.9
13.8524	24.0001	13.4887#9.6	9.0	6.9
13.7025	23.74	13.3287#9.6	9.0	6.9
13.5528	23.4801	13.1687#9.6	9.0	6.9
13.5105	23.4068	13.1236#9.6	10.9	6.9
13.6232	23.6024	13.244#9.6	10.9	6.9
13.7358	23.7977	13.3642#9.6	10.9	4.6
13.9149	24.1085	13.5555#9.6	10.9	4.6
14.0296	24.3074	13.6778#9.6	10.9	4.6
14.2097	24.62	13.8702#9.6	10.9	6.9
14.4217	24.988	14.0966#9.6	10.9	6.9
14.6663	25.4124	14.3578#11.5	10.9	6.9
14.9067	25.8295	14.6145#11.5	10.9	6.9
15.1183	26.1966	14.8403#11.5	10.9	6.9
15.2237	26.3795	14.9529#11.5	10.9	4.6
15.3479	26.595	15.0855#11.5	10.9	4.6
15.5234	26.8996	15.2729#11.5	10.9	4.6
15.7903	27.3627	15.5579#11.5	10.9	6.9
16.016	27.7544	15.7989#11.5	10.9	6.9
16.1717	28.0246	15.9652#9.6	10.9	6.9
16.206	28.084	16.0018#9.6	10.9	6.9
16.1107	27.9186	15.9#9.6	10.9	6.9
16.8097	28.5214	16.1198#9.6	10.9	6.9
17.8397	29.4304	16.4618#9.6	10.9	6.9
19.2977	30.9102	17.1124#9.6	10.9	6.9
20.7204	32.288	17.6902#9.6	10.9	6.9
22.054	33.478	18.1442#9.6	10.9	6.9
23.3127	34.5808	18.5551#9.6	10.9	6.9
24.5006	35.6002	18.9245#9.6	10.9	6.9
25.6485	36.5038	19.2077#9.6	10.9	6.9
26.0541	36.9083	19.2849#9.6	10.9	6.9
26.3283	37.1118	19.2547#9.6	10.9	6.9
26.472	37.1151	19.1169#9.6	10.9	6.9
26.4995	37.0232	18.9462#9.6	10.9	6.9
26.4864	36.7799	18.6874#9.6	10.9	6.9
26.4327	36.3843	18.3397#9.6	10.9	6.9
26.2739	35.8403	17.9039#9.6	10.9	6.9
26.0293	35.2027	17.4129#9.6	10.9	6.9
25.6981	34.4696	16.8648#9.6	10.9	6.9
25.361	33.7816	16.3443#9.6	10.9	6.9
25.045	33.1768	15.8923#9.6	10.9	6.9
24.7906	32.7216	15.5457#9.6	10.9	6.9
24.4849	32.3123	15.2657#9.6	10.9	6.9
24.127	31.9476	15.0515#9.6	10.9	6.9
23.6632	31.4696	14.7947#9.6	10.9	6.9
23.1897	30.8458	14.4559#9.6	10.9	6.9
22.7866	30.2067	14.1059#9.6	10.9	6.9
22.6157	29.8085	13.8902#7.6	10.9	6.9
22.6765	29.6498	13.8079#7.6	10.9	6.9
23.0125	29.7748	13.875#7.6	10.9	6.9
23.5719	30.1754	14.072#9.6	10.9	6.9
24.03	30.5112	14.2378#9.6	10.9	6.9
24.6232	30.9519	14.4548#9.6	10.9	6.9
24.9994	31.1776	14.5662#9.6	10.9	6.9
25.1601	31.1892	14.5724#9.6	10.9	6.9
25.1268	31.02	14.4835#9.6	10.9	6.9
24.6528	30.2809	14.0718#9.6	10.9	6.9
24.2415	29.5596	13.6444#9.6	10.9	6.9
23.7109	28.724	13.1442#9.6	10.9	6.9
23.1071	27.9351	12.7029#9.6	10.9	6.9
22.4282	27.1904	12.3191#9.6	10.9	6.9
21.8784	26.6619	12.0699#9.6	10.9	6.9
21.4561	26.348	11.9547#9.6	10.9	6.9
20.9079	26.0617	11.91#9.6	10.9	6.9
20.1562	25.6082	11.8037#9.6	10.9	6.9
19.5937	25.331	11.7818#9.6	10.9	6.9
19.0291	25.0052	11.7177#9.6	10.9	6.9
18.5092	24.6693	11.6265#9.6	10.9	6.9
18.1964	24.5014	11.6023#9.6	10.9	6.9
18.038	24.5963	11.7036#9.6	10.9	6.9
17.9206	24.8722	11.8974#9.6	10.9	6.9
17.8438	25.3302	12.1842#9.6	10.9	6.9
17.5215	25.631	12.3926#9.6	10.9	6.9
17.285	25.9943	12.6309#9.6	10.9	6.9
17.0602	26.211	12.7653#9.6	10.9	6.9
16.7501	26.2862	12.8329#9.6	10.9	6.9
16.5376	26.3714	12.9068#9.6	10.9	6.9
16.5208	26.5673	13.0512#9.6	10.9	6.9
16.6115	26.9354	13.3178#9.6	10.9	6.9
16.7194	27.1849	13.5127#9.6	10.9	6.9
16.8449	27.3167	13.6366#9.6	10.9	6.9
16.8872	27.3221	13.6796#9.6	10.9	6.9
16.7351	27.1077	13.6084#9.6	10.9	6.9
16.5266	26.7967	13.4663#9.6	10.9	6.9
16.2608	26.3884	13.2529#9.6	10.9	6.9
15.8737	25.8081	12.9372#9.6	10.9	6.9
15.3565	25.009	12.5005#9.6	10.9	6.9
14.9235	24.3415	12.1396#9.6	10.9	6.9
14.6158	23.7642	11.8183#9.6	10.9	6.9
14.4326	23.2754	11.5355#9.6	10.9	6.9
14.3432	22.8388	11.2674#9.6	10.9	6.9
14.2504	22.4214	11.0173#9.6	10.9	6.9
14.1522	21.9691	10.7455#9.6	10.9	6.9
14.0983	21.5112	10.459#9.6	10.9	6.9
14.0753	21.0989	10.1815#9.6	10.9	6.9
14.0453	20.7555	9.94522#9.6	10.9	6.9
14.0081	20.48	9.7493#9.6	10.9	6.9
13.9309	20.2173	9.56363#9.6	10.9	6.9
13.8905	20.075	9.44919#9.6	10.9	6.9
13.9417	20.1281	9.4531#9.6	10.9	6.9
13.8973	20.2373	9.51234#9.6	10.9	6.9
13.8822	20.436	9.62#9.6	10.9	6.9
13.9279	20.8399	9.85758#9.6	10.9	6.9
14.0442	21.3441	10.1616#7.6	10.9	6.9
14.2244	21.9088	10.5001#7.6	10.9	6.9
14.4692	22.5359	10.8744#7.6	10.9	6.9
14.6142	23.019	11.1766#9.6	10.9	6.9
14.66	23.3598	11.4079#9.6	10.9	6.9
14.7332	23.6341	11.5908#9.6	10.9	6.9
14.8022	23.7967	11.7004#7.6	10.9	6.9
14.8716	23.7939	11.6946#7.6	10.9	6.9
14.93	23.753	11.6764#9.6	10.9	6.9
15.0231	23.6824	11.6355#9.6	10.9	6.9
15.137	23.6097	11.5879#9.6	10.9	6.9
15.5482	23.8181	11.6848#9.6	10.9	6.9
15.8522	23.8891	11.7065#7.6	10.9	6.9
16.1364	23.9303	11.7111#7.6	10.9	6.9
16.3848	23.9889	11.7456#7.6	10.9	6.9
16.5287	24.1179	11.8342#9.6	10.9	6.9
16.434	24.069	11.8215#9.6	10.9	6.9
16.1058	23.9546	11.7909#7.6	10.9	6.9
15.5738	23.667	11.6455#7.6	10.9	6.9
15.0114	23.4519	11.5315#7.6	10.9	6.9
14.5568	23.326	11.469#7.6	10.9	6.9
14.2087	23.2888	11.4578#7.6	10.9	6.9
13.979	23.3145	11.475#7.6	10.9	6.9
13.8671	23.4031	11.5209#7.6	10.9	6.9
13.5842	23.1936	11.3913#7.6	10.9	6.9
13.0699	22.6438	11.0526#7.6	10.9	6.9
12.5983	22.1764	10.7687#7.6	9.0	6.9
12.1678	21.79	10.5389#7.6	9.0	6.9
11.7014	21.3811	10.2904#9.6	10.9	6.9
11.3952	21.1437	10.1181#9.6	10.9	6.9
11.442	21.395	10.2314#9.6	10.9	6.9
11.8598	22.0564	10.5659#9.6	10.9	6.9
11.9882	22.4528	10.7887#9.6	10.9	6.9
12.2149	22.8745	11.0091#9.6	10.9	6.9
12.57	23.3328	11.2289#9.6	10.9	6.9
13.0547	23.8292	11.4487#9.6	10.9	6.9
13.3331	24.1277	11.5832#9.6	10.9	6.9
13.4697	24.2276	11.6203#9.6	10.9	6.9
13.5158	24.213	11.6028#9.6	10.9	6.9
13.457	24.1019	11.5446#9.6	10.9	6.9
13.2931	23.894	11.4454#9.6	10.9	6.9
13.4252	23.9306	11.444#9.6	10.9	6.9
13.5198	23.8892	11.4009#9.6	10.9	6.9
13.5771	23.7695	11.3161#9.6	10.9	6.9
13.6306	23.6064	11.2051#9.6	10.9	6.9
13.5634	23.2927	11.0225#9.6	10.9	4.6
13.7311	23.1941	10.9306#9.6	10.9	4.6
14.0865	23.2412	10.8949#9.6	10.9	6.9
14.3628	23.1635	10.7962#9.6	10.9	6.9
14.6102	23.001	10.65#9.6	10.9	6.9
14.8295	22.7532	10.4561#9.6	10.9	6.9
15.2251	22.838	10.4618#9.6	10.9	6.9
15.4407	22.858	10.473#9.6	10.9	6.9
15.4319	22.6453	10.3626#9.6	10.9	6.9
15.4738	22.5271	10.2974#9.6	10.9	6.9
15.5138	22.4185	10.2301#9.6	10.9	6.9
15.588	22.355	10.18#9.6	10.9	6.9
15.7588	22.418	10.1884#9.6	9.0	6.9
16.0587	22.684	10.3127#9.6	9.0	6.9
16.3358	23.0009	10.4787#9.6	9.0	6.9
16.561	23.3445	10.6693#9.6	10.9	6.9
16.6845	23.6085	10.8189#9.6	10.9	6.9
16.84	23.8922	10.9613#11.5	10.9	6.9
16.9935	24.1934	11.106#11.5	10.9	6.9
17.0528	24.357	11.1556#11.5	10.9	6.9
17.1202	24.4776	11.18#9.6	10.9	6.9
17.2818	24.6649	11.2545#9.6	10.9	6.9
17.5991	24.9432	11.3673#9.6	10.9	6.9
18.1096	25.4791	11.634#9.6	10.9	6.9
18.7722	26.1721	11.9836#9.6	10.9	6.9
19.4868	26.8815	12.3353#9.6	10.9	6.9
20.1343	27.4468	12.608#9.6	10.9	6.9
20.1874	27.3899	12.5822#9.6	10.9	6.9
19.6162	26.732	12.2707#9.6	10.9	6.9
19.2042	26.2392	12.0404#9.6	10.9	6.9
18.6981	25.6261	11.7356#9.6	10.9	6.9
18.2762	25.1288	11.4854#9.6	10.9	6.9
17.9964	24.7846	11.3173#9.6	10.9	6.9
18.0144	24.7313	11.2977#9.6	10.9	6.9
18.1788	24.8274	11.3528#9.6	10.9	6.9
18.4569	25.0482	11.4619#9.6	10.9	6.9
18.8496	25.3946	11.6253#9.6	10.9	6.9
19.0287	25.5154	11.6779#9.6	10.9	6.9
18.9556	25.3454	11.5874#9.6	9.0	6.9
18.8666	25.1954	11.5163#9.6	9.0	6.9
19.0147	25.2968	11.572#9.6	10.9	6.9
19.1942	25.5014	11.6974#9.6	10.9	6.9
19.3834	25.7506	11.8588#9.6	10.9	6.9
19.6167	26.0841	12.0816#9.6	10.9	6.9
19.8856	26.3863	12.2748#9.6	10.9	6.9
20.2598	26.6769	12.4361#9.6	10.9	6.9
20.6814	26.9555	12.5677#9.6	9.0	6.9
21.0342	27.133	12.6305#9.6	9.0	6.9
21.3195	27.2101	12.6248#9.6	10.9	6.9
21.5797	27.28	12.6193#9.6	10.9	6.9
21.9245	27.4839	12.6879#9.6	10.9	6.9
22.3162	27.8111	12.8196#9.6	10.9	6.9
22.7561	28.2626	13.0148#9.6	10.9	4.6
23.1341	28.6956	13.1855#9.6	10.9	4.6
23.2978	28.9037	13.2216#9.6	10.9	4.6
23.3607	28.9192	13.1483#9.6	9.0	6.9
23.382	28.86	13.0368#9.6	9.0	6.9
23.3617	28.7259	12.8868#11.5	9.0	6.9
23.5164	28.6968	12.7786#11.5	9.0	6.9
23.5801	28.5237	12.5911#11.5	9.0	6.9
23.5637	28.2557	12.3595#11.5	9.0	6.9
23.4673	27.8918	12.083#11.5	9.0	6.9
23.7089	28.0375	12.1157#11.5	9.0	6.9
24.0361	28.2699	12.2002#11.5	9.0	6.9
24.3705	28.452	12.2522#11.5	9.0	6.9
24.7034	28.6405	12.3085#11.5	9.0	6.9
25.0541	28.8643	12.3834#11.5	9.0	6.9
25.2839	28.9464	12.3924#11.5	9.0	6.9
25.3937	28.8871	12.3355#11.5	9.0	6.9
25.2022	28.5374	12.1533#11.5	9.0	6.9
24.8364	28.0861	11.9506#11.5	9.0	6.9
24.8471	28.0267	11.9371#11.5	9.0	6.9
24.912	28.0399	11.9609#11.5	9.0	6.9
25.0314	28.1257	12.022#11.5	9.0	6.9
25.1836	28.2684	12.1098#11.5	10.9	6.9
25.3669	28.3926	12.1647#11.5	10.9	6.9
25.4944	28.4874	12.2033#11.5	10.9	6.9
25.6829	28.7442	12.335#11.5	10.9	6.9
26.0619	29.2147	12.5611#11.5	10.9	6.9
26.6465	29.9292	12.9156#9.6	9.0	6.9
26.9946	30.3641	13.13#9.6	9.0	6.9
27.1072	30.521	13.2052#9.6	9.0	4.6
27.175	30.6491	13.2788#9.6	9.0	4.6
26.9733	30.5233	13.2392#9.6	9.0	4.6
26.5612	30.1808	13.1004#9.6	9.0	4.6
25.9373	29.6208	12.8618#11.5	10.9	4.6
25.5568	29.2868	12.747#11.5	10.9	4.6
25.1595	29.0029	12.6759#11.5	10.9	4.6
24.7266	28.7435	12.6256#9.6	9.0	6.9
24.2509	28.3516	12.4828#9.6	9.0	6.9
23.9023	28.0825	12.3954#9.6	9.0	6.9
23.569	27.8086	12.2996#9.6	9.0	6.9
23.2603	27.5578	12.2121#9.6	9.0	6.9
23.0335	27.3613	12.1386#9.6	9.0	6.9
22.802	27.1605	12.0507#9.6	10.9	6.9
22.6573	27.0304	11.9956#9.6	10.9	6.9
22.5987	26.9706	11.9731#9.6	10.9	6.9
22.4856	26.8303	11.8996#9.6	10.9	6.9
22.363	26.7549	11.8664#9.6	9.0	6.9
22.1885	26.7131	11.8654#9.6	9.0	6.9
21.9136	26.4572	11.7122#9.6	9.0	4.6
21.5389	26.1265	11.5142#9.6	9.0	4.6
21.2274	25.8588	11.357#9.6	9.0	4.6
20.9781	25.6532	11.2399#9.6	9.0	4.6
20.7301	25.4782	11.1636#9.6	9.0	6.9
20.4867	25.3134	11.1178#9.6	9.0	6.9
20.2818	25.0851	11.0317#9.6	9.0	6.9
20.0574	24.7904	10.9045#9.6	9.0	6.9
19.9325	24.5809	10.8088#9.6	9.0	6.9
19.8319	24.4388	10.7489#9.6	9.0	6.9
19.8213	24.4388	10.7673#9.6	9.0	6.9
19.83	24.407	10.7653#9.6	9.0	6.9
19.868	24.3524	10.7533#9.6	9.0	6.9
19.9921	24.3436	10.761#9.6	9.0	6.9
20.2026	24.3805	10.7885#9.6	9.0	6.9
20.4313	24.4796	10.8676#9.6	9.0	6.9
20.6382	24.5553	10.9274#9.6	9.0	6.9
20.8239	24.6078	10.9682#9.6	10.9	4.6
20.807	24.5122	10.9433#9.6	10.9	4.6
20.4215	24.2042	10.8431#9.6	10.9	4.6
19.9651	23.7909	10.6825#9.6	9.0	6.9
19.4516	23.3409	10.5148#9.6	9.0	6.9
18.9594	22.8747	10.324#9.6	9.0	4.6
18.4732	22.4134	10.1347#9.6	9.0	4.6
18.1141	22.0788	10.0002#9.6	9.0	4.6
17.7131	21.6406	9.79436#9.6	9.0	6.9
17.2953	21.1262	9.52995#9.6	9.0	6.9
17.043	20.7805	9.34005#9.6	9.0	6.9
16.8594	20.5029	9.17937#9.6	9.0	6.9
16.7438	20.2924	9.04735#9.6	9.0	6.9
16.5377	19.9491	8.83971#9.6	10.9	6.9
16.2426	19.5113	8.58864#9.6	10.9	6.9
15.9601	19.105	8.35941#9.6	10.9	6.9
15.6723	18.741	8.16892#9.6	10.9	4.6
15.3782	18.418	8.01653#9.6	10.9	4.6
15.0659	18.0895	7.86726#9.6	10.9	6.9
14.7341	17.7544	7.72061#9.6	10.9	6.9
14.4586	17.4808	7.60285#9.6	10.9	6.9
14.2883	17.2958	7.51639#9.6	10.9	6.9
14.2045	17.1998	7.46957#9.6	10.9	6.9
14.2105	17.1775	7.44771#9.6	10.9	6.9
14.3284	17.224	7.43719#9.6	10.9	4.6
14.4213	17.1792	7.35862#9.6	10.9	4.6
14.676	17.2872	7.34241#9.6	10.9	4.6
15.0934	17.5484	7.38851#9.6	10.9	4.6
15.5916	17.8646	7.44736#9.6	10.9	4.6
16.1435	18.2131	7.51105#9.6	10.9	6.9
16.7509	18.5952	7.57981#9.6	10.9	6.9
17.4137	19.034	7.67374#9.6	10.9	6.9
18.3074	20.0512	8.14224#9.6	10.9	6.9
18.7186	20.8686	8.57482#9.6	10.9	6.9
19.0564	21.5152	8.91474#9.6	10.9	6.9
19.3221	21.9933	9.16315#9.6	10.9	6.9
19.4172	22.2436	9.30121#9.6	10.9	6.9
19.3421	22.2669	9.32938#9.6	10.9	6.9
19.2176	22.4623	9.47352#9.6	10.9	6.9
19.262	22.9657	9.77807#9.6	10.9	6.9
19.2882	23.6892	10.2227#9.6	10.9	6.9
19.4698	24.7903	10.8734#9.6	10.9	4.6
19.8073	26.2727	11.7325#9.6	10.9	4.6
20.1845	27.7064	12.554#9.6	10.9	4.6
20.55	29.0406	13.3159#7.6	10.9	6.9
20.7767	30.1537	13.9659#7.6	10.9	6.9
20.9179	31.1475	14.5574#7.6	10.9	6.9
20.9102	31.978	15.0746#9.6	10.9	4.6
20.9213	32.7813	15.5715#9.6	10.9	4.6
20.8481	33.4092	15.9749#9.6	10.9	4.6
20.7321	33.9314	16.3205#9.6	10.9	4.6
20.5708	34.3113	16.5859#9.6	10.9	4.6
20.3638	34.55	16.772#7.6	10.9	6.9
19.9493	34.4776	16.8027#7.6	10.9	6.9
19.6191	34.3363	16.7753#7.6	10.9	6.9
19.3721	34.1256	16.6896#7.6	10.9	6.9
19.2703	34.0028	16.6319#7.6	10.9	4.6
19.2024	33.898	16.5792#7.6	10.9	4.6
19.1682	33.8109	16.5314#7.6	9.0	6.9
19.2215	33.8488	16.5452#7.6	9.0	6.9
19.1106	33.7486	16.5032#7.6	9.0	6.9
18.8566	33.4828	16.3845#7.6	9.0	6.9
18.6514	33.172	16.229#7.6	9.0	6.9
18.4671	32.8628	16.0706#9.6	10.9	4.6
18.3031	32.5541	15.9089#9.6	10.9	4.6
18.074	32.1055	15.672#9.6	10.9	4.6
17.8022	31.5159	15.3555#9.6	10.9	6.9
17.4869	30.7834	14.9582#9.6	10.9	6.9
17.1629	29.9318	14.4884#9.6	9.0	6.9
16.9044	29.0931	14.0147#9.6	9.0	6.9
16.7975	28.476	13.651#9.6	9.0	6.9
16.6372	27.8538	13.2938#7.6	9.0	6.9
16.2917	27.0342	12.8479#7.6	9.0	6.9
16.1059	26.3845	12.4783#7.6	9.0	6.9
16.094	25.9003	12.1797#9.6	10.9	6.9
16.1284	25.4181	11.8739#9.6	10.9	6.9
16.2203	25.0343	11.6187#9.6	9.0	6.9
16.3367	24.6039	11.3302#9.6	9.0	6.9
16.4936	24.1683	11.0309#7.6	9.0	6.9
16.6121	23.6721	10.7011#7.6	9.0	6.9
16.6925	23.1138	10.3396#7.6	9.0	6.9
16.7235	22.5023	9.95411#7.6	9.0	6.9
16.7094	21.868	9.56271#7.6	9.0	6.9
16.6559	21.246	9.18615#7.6	9.0	6.9
16.5905	20.7709	8.90298#7.6	9.0	6.9
16.6094	20.475	8.71575#7.6	9.0	6.9
16.587	20.2702	8.59267#7.6	9.0	6.9
16.6177	20.2422	8.56966#7.6	10.9	4.6
16.6545	20.3441	8.62619#7.6	10.9	4.6
16.7436	20.6635	8.8083#7.6	10.9	4.6
16.8302	21.1336	9.08451#7.6	10.9	4.6
16.9938	21.8316	9.48815#7.6	9.0	4.6
17.1146	22.6464	9.97215#7.6	9.0	4.6
17.3225	23.6459	10.555#7.6	9.0	6.9
17.5349	24.8302	11.2517#7.6	9.0	6.9
17.6607	25.9016	11.8942#7.6	9.0	6.9
17.7787	26.8954	12.4899#9.6	10.9	6.9
17.8893	27.815	13.0409#9.6	10.9	6.9
17.9493	28.5823	13.5065#9.6	10.9	6.9
18.0274	29.3622	13.9767#7.6	10.9	4.6
18.1812	30.1887	14.4619#7.6	10.9	4.6
18.3446	31.0624	14.9748#7.6	10.9	4.6
18.5244	31.9794	15.5114#7.6	10.9	4.6
18.7572	33.0363	16.1254#7.6	10.9	4.6
18.9577	34.0047	16.6902#9.6	10.9	6.9
19.1648	34.8739	17.1923#9.6	10.9	6.9
19.3792	35.6468	17.6331#9.6	10.9	6.9
19.5994	36.4087	18.0662#9.6	10.9	6.9
19.8262	37.1623	18.4927#7.6	10.9	6.9
19.9976	37.7961	18.8551#7.6	10.9	6.9
20.2265	38.405	19.1915#9.6	10.9	6.9
20.4105	38.9906	19.5216#9.6	10.9	6.9
20.6029	39.5661	19.8439#9.6	9.0	6.9
20.8043	40.1335	20.1595#9.6	9.0	6.9
21.0158	40.633	20.4311#9.6	9.0	6.9
21.2638	41.1581	20.712#9.6	9.0	6.9
21.514	41.631	20.9599#9.6	9.0	6.9
21.7672	42.0531	21.1758#9.6	9.0	6.9
21.8757	42.1608	21.2229#9.6	9.0	6.9
21.8359	42.2979	21.5842#9.6	9.0	6.9
21.6482	42.4438	22.2324#9.6	9.0	6.9
21.4286	42.4027	22.8133#9.6	9.0	6.9
21.0702	41.7622	22.8144#9.6	9.0	6.9
20.7528	41.1239	22.6594#9.6	9.0	6.9
20.5384	40.6059	22.4477#9.6	9.0	6.9
20.3667	39.9954	22.0264#9.6	9.0	6.9
20.2471	39.2975	21.3802#9.6	9.0	6.9
20.1794	38.5099	20.507#11.5	10.9	6.9
20.1153	37.5763	19.3956#15.3	10.9	6.9
20.0733	36.9862	18.657#15.3	10.9	6.9
20.0361	36.8155	18.4687#17.3	12.7	9.3
20.0875	36.9627	18.6052#17.3	12.7	9.3
20.2277	37.4284	19.0671#19.2	14.5	6.9
20.2711	37.8123	19.4097#19.2	14.5	6.9
20.3115	38.1523	19.5723#21.1	18.1	6.9
20.5924	38.9676	20.189#21.1	18.1	6.9
20.884	40.0034	21.0792#21.1	18.1	6.9
21.2419	40.8746	21.6485#21.1	21.8	6.9
21.6673	41.5844	21.8988#21.1	21.8	6.9
22.081	42.1852	22.0667#21.1	20.0	6.9
22.5145	43.1475	22.5707#21.1	20.0	6.9
23.0129	44.5089	23.4334#21.1	20.0	6.9
23.5778	46.274	24.6574#21.1	20.0	6.9
24.0622	47.7112	25.3978#21.1	20.0	6.9
24.2468	48.256	25.2629#21.1	20.0	6.9
24.266	48.3691	24.7557#21.1	20.0	6.9
24.2496	48.8199	24.9252#21.1	20.0	6.9
24.278	49.2206	25.1689#21.1	20.0	6.9
24.163	49.3859	25.2926#21.1	20.0	6.9
23.9969	49.3201	25.2821#21.1	20.0	6.9
23.7225	49.0106	25.14#19.2	18.1	6.9
23.2754	48.4051	24.8456#19.2	18.1	6.9
22.7748	47.5404	24.4#19.2	18.1	6.9
22.2876	46.5403	23.8678#17.3	16.3	6.9
21.8121	45.4014	23.2473#17.3	16.3	6.9
21.4408	44.3881	22.6858#17.3	16.3	6.9
21.041	43.2925	22.0784#17.3	16.3	6.9
20.5921	42.3017	21.545#17.3	16.3	6.9
20.0988	41.1987	20.95#17.3	14.5	6.9
19.5786	40.0698	20.3439#17.3	14.5	6.9
19.0296	38.9114	19.7247#13.4	10.9	6.9
18.4474	37.7763	19.1261#13.4	10.9	6.9
17.8575	36.6439	18.5305#13.4	10.9	6.9
17.3493	35.6322	17.995#13.4	10.9	6.9
16.9212	34.738	17.5178#11.5	9.0	6.9
16.4511	33.7654	16.9996#11.5	9.0	6.9
16.0533	32.8056	16.4762#11.5	9.0	6.9
15.767	31.9184	15.9774#11.5	9.0	6.9
15.5912	31.1008	15.5017#11.5	9.0	6.9
15.5091	30.2676	14.9992#11.5	9.0	6.9
15.2989	29.2826	14.4258#11.5	9.0	6.9
14.985	28.2922	13.868#11.5	9.0	6.9
14.6286	27.387	13.3709#11.5	10.9	6.9
14.2897	26.5802	12.9317#11.5	10.9	6.9
14.0196	25.8731	12.5419#11.5	9.0	6.9
13.85	25.2794	12.2041#11.5	9.0	6.9
13.7722	24.8579	11.9565#9.6	9.0	6.9
13.5473	24.4572	11.7487#9.6	9.0	6.9
13.4189	24.1531	11.5833#9.6	9.0	6.9
13.2618	23.9049	11.4579#9.6	9.0	6.9
13.1771	23.7604	11.3836#9.6	9.0	6.9
13.1646	23.719	11.3601#9.6	9.0	6.9
13.1813	23.8294	11.4256#9.6	9.0	4.6
13.2233	24.1025	11.5876#9.6	9.0	4.6
13.2909	24.5393	11.8466#9.6	9.0	4.6
13.3434	25.1269	12.202#9.6	9.0	4.6
13.4006	25.7301	12.5662#9.6	9.0	4.6
13.4665	26.3604	12.9456#9.6	9.0	4.6
13.4789	26.8525	13.249#9.6	9.0	6.9
13.4379	27.2081	13.4773#9.6	9.0	6.9
13.4081	27.468	13.6442#9.6	9.0	6.9
13.388	27.6308	13.749#9.6	9.0	6.9
13.3774	27.6969	13.792#9.6	9.0	4.6
13.3226	27.6343	13.7632#9.6	9.0	4.6
13.24	27.5023	13.6962#9.6	9.0	6.9
13.1465	27.3021	13.589#9.6	9.0	6.9
13.0417	27.0331	13.441#9.6	9.0	6.9
12.8724	26.6044	13.2057#9.6	9.0	6.9
12.7338	26.0542	12.8893#9.6	9.0	4.6
12.6254	25.3806	12.4907#9.6	9.0	4.6
12.6026	24.7974	12.1326#9.6	9.0	4.6
12.7624	24.3754	11.8562#9.6	9.0	4.6
13.5268	24.9675	12.1852#9.6	9.0	4.6
14.1906	25.4787	12.4623#9.6	9.0	6.9
14.756	25.9107	12.6884#9.6	9.0	6.9
15.1755	26.2631	12.8766#9.6	9.0	6.9
15.5333	26.5376	13.0136#9.6	9.0	6.9
15.8228	26.8074	13.1479#7.6	9.0	4.6
16.0448	27.0737	13.2801#7.6	9.0	4.6
16.1749	27.466	13.5061#9.6	9.0	6.9
16.2149	27.5777	13.5298#9.6	9.0	6.9
16.165	27.409	13.3515#9.6	9.0	4.6
15.9817	27.1744	13.1382#9.6	9.0	4.6
15.6168	26.8654	12.8898#9.6	9.0	4.6
15.8226	27.7783	13.3957#9.6	9.0	4.6
16.0505	28.7618	13.965#9.6	9.0	4.6
16.1653	29.5838	14.4545#9.6	9.0	4.6
16.4015	30.3423	14.8826#9.6	9.0	6.9
16.492	30.8549	15.1844#9.6	9.0	6.9
16.6396	31.2963	15.4316#9.6	9.0	6.9
16.6816	31.5469	15.5795#9.6	9.0	6.9
16.5521	31.6749	15.6827#11.5	9.0	6.9
16.4502	31.6379	15.6784#11.5	10.9	6.9
16.329	31.5804	15.6648#11.5	10.9	6.9
16.1773	31.4047	15.5834#11.5	10.9	6.9
15.977	31.2173	15.5634#13.4	12.7	6.9
15.6978	30.8584	15.4586#13.4	12.7	6.9
15.3795	30.535	15.3691#13.4	12.7	6.9
15.0556	30.3302	15.4205#13.4	12.7	6.9
14.7231	30.1189	15.4597#13.4	12.7	6.9
14.3176	29.6478	15.1299#13.4	16.3	6.9
13.837	28.9626	14.4942#13.4	16.3	6.9
13.5564	28.8264	14.4608#15.3	20.0	6.9
13.298	28.7353	14.4515#15.3	20.0	6.9
13.0608	28.689	14.4661#15.3	25.4	6.9
12.7978	28.788	14.5756#15.3	25.4	6.9
12.5125	28.8539	14.6687#15.3	25.4	6.9
12.2416	29.0153	14.8184#15.3	30.9	6.9
11.9275	29.2447	15.0183#15.3	29.0	6.9
11.6249	29.5013	15.233#15.3	29.0	6.9
11.2757	29.4344	15.2553#15.3	29.0	6.9
10.9433	29.0942	15.1047#15.3	29.0	6.9
10.7476	29.0583	15.1181#15.3	29.0	6.9
10.5501	28.9527	15.0887#15.3	23.6	6.9
10.2636	28.7529	15.0169#15.3	23.6	6.9
9.78951	28.3401	14.8471#13.4	20.0	6.9
9.38715	27.8749	14.6317#13.4	20.0	6.9
9.17235	27.4582	14.4121#15.3	20.0	6.9
8.90809	26.9554	14.1482#15.3	20.0	6.9
8.64561	26.348	13.8189#13.4	18.1	6.9
8.3752	25.6772	13.4516#13.4	18.1	6.9
7.94213	24.8786	13.0347#13.4	18.1	6.9
7.37793	23.9458	12.5584#13.4	18.1	6.9
6.76001	23.1421	12.1721#13.4	18.1	6.9
6.1244	22.5171	11.9001#13.4	18.1	6.9
5.72744	22.0667	11.6928#13.4	18.1	6.9
5.51774	21.6117	11.4486#13.4	18.1	6.9
5.49916	21.0021	11.0734#13.4	18.1	6.9
5.6788	20.4569	10.7019#13.4	18.1	6.9
5.94931	19.9905	10.3628#13.4	18.1	6.9
6.21222	19.6687	10.1148#13.4	16.3	6.9
6.41665	19.3116	9.85569#13.4	16.3	6.9
6.98733	19.764	10.1113#13.4	16.3	6.9
7.66233	20.5733	10.6079#13.4	16.3	6.9
8.31101	21.5504	11.2344#13.4	16.3	6.9
8.93554	22.6985	11.9929#13.4	16.3	6.9
9.37382	23.6054	12.6077#13.4	14.5	4.6
9.62732	24.274	13.0807#13.4	14.5	4.6
9.99093	25.3459	13.8218#13.4	14.5	4.6
10.3033	26.2117	14.4103#11.5	12.7	4.6
10.5656	26.8742	14.848#11.5	12.7	4.6
10.7813	27.2558	15.0808#11.5	12.7	4.6
10.9201	27.3627	15.1171#11.5	12.7	4.6
11.0256	27.1946	14.9604#11.5	12.7	4.6
11.1384	27.0117	14.7999#11.5	12.7	6.9
11.2265	26.9146	14.7136#11.5	12.7	6.9
11.3844	26.9742	14.731#11.5	10.9	6.9
11.6057	27.2239	14.8871#11.5	10.9	6.9
11.8579	27.3317	14.9367#11.5	10.9	6.9
12.1418	27.2978	14.8801#9.6	10.9	6.9
12.4243	27.1986	14.7903#9.6	10.9	6.9
12.6272	26.9976	14.6579#9.6	10.9	4.6
12.7513	26.6942	14.4823#9.6	10.9	4.6
12.928	26.6649	14.5075#9.6	10.9	4.6
13.2388	26.7213	14.5752#9.6	10.9	4.6
13.6287	26.8803	14.685#9.6	10.9	4.6
14.1475	27.1525	14.84#9.6	10.9	4.6
14.7746	27.4858	15.0116#9.6	9.0	6.9
15.4988	27.9453	15.2552#9.6	9.0	6.9
16.1863	28.3731	15.4754#9.6	10.9	4.6
16.8429	28.6646	15.6051#9.6	10.9	4.6
17.5941	28.98	15.7388#7.6	9.0	6.9
18.3537	29.3845	15.9333#7.6	9.0	6.9
19.118	29.8073	16.1415#7.6	9.0	6.9
19.3528	29.9774	16.2839#7.6	9.0	6.9
19.0988	30.111	16.5082#7.6	9.0	4.6
18.6874	30.0236	16.6095#7.6	9.0	4.6
18.366	29.8308	16.5812#7.6	9.0	4.6
17.8662	29.4159	16.4379#7.6	9.0	4.6
17.2769	28.8712	16.221#7.6	9.0	4.6
16.5848	28.0718	15.8285#7.6	9.0	4.6
15.8875	27.2939	15.4568#7.6	9.0	4.6
15.5676	26.9763	15.3201#7.6	9.0	4.6
15.5748	26.9888	15.3278#7.6	9.0	4.6
15.5768	26.9923	15.33#7.6	9.0	4.6
15.632	27.088	15.3889#7.6	9.0	6.9
15.7406	27.2764	15.5048#7.6	9.0	6.9
15.9798	27.6915	15.7602#7.6	9.0	6.9
16.2318	28.1289	16.0294#7.6	9.0	6.9
16.4553	28.5166	16.2679#7.6	9.0	6.9
16.5767	28.7274	16.3976#7.6	9.0	6.9
16.6664	28.883	16.4934#7.6	9.0	6.9
16.7757	29.0725	16.61#7.6	9.0	6.9
16.8656	29.2287	16.7061#7.6	9.0	6.9
16.8743	29.2437	16.7154#7.6	9.0	4.6
16.9193	29.3218	16.7634#7.6	9.0	4.6
17.0107	29.4804	16.861#7.6	9.0	4.6
17.3064	29.9935	17.1767#7.6	9.0	4.6
17.4816	30.2975	17.3638#7.6	9.0	4.6
17.537	30.3936	17.4229#7.6	9.0	4.6
17.4656	30.2697	17.3467#7.6	9.0	6.9
17.3741	30.1109	17.249#7.6	9.0	6.9
17.1771	29.7692	17.0387#7.6	9.0	4.6
16.9951	29.4532	16.8443#7.6	9.0	4.6
16.6676	28.8849	16.4946#7.6	9.0	4.6
16.1935	28.0624	15.9885#7.6	9.0	4.6
15.8045	27.3874	15.5731#7.6	9.0	6.9
15.6623	27.1406	15.4212#7.6	9.0	6.9
15.5649	26.9716	15.3172#7.6	9.0	6.9
15.4798	26.8239	15.2263#7.6	9.0	6.9
15.2689	26.9657	15.3286#7.6	10.9	6.9
15.0764	27.1302	15.4447#7.6	10.9	6.9
14.9074	27.2418	15.5253#7.6	12.7	4.6
14.6525	27.2782	15.5619#7.6	12.7	4.6
14.3612	27.2081	15.5317#7.6	20.0	4.6
14.1005	27.171	15.5211#7.6	20.0	4.6
13.9506	27.06	15.4573#7.6	67.2	4.6
13.783	26.9499	15.3948#7.6	67.2	4.6
13.5332	26.6604	15.221#7.6	67.2	4.6
13.2674	26.1879	14.9299#7.6	67.2	4.6
12.9585	25.6724	14.6133#7.6	89.0	4.6
12.511	25.0788	14.2534#7.6	89.0	4.6
11.7835	24.1509	13.6924#7.6	89.0	4.6
11.0822	23.3539	13.2144#7.6	89.0	4.6
10.3988	22.5813	12.7512#7.6	94.5	4.6
9.73105	21.8306	12.3014#7.6	94.5	4.6
9.22957	21.3538	12.0197#7.6	98.1	4.6
8.80383	20.9417	11.7758#7.6	98.1	4.6
8.57683	20.8528	11.7301#7.6	98.1	6.9
8.38121	20.7511	11.6745#7.6	98.1	6.9
8.21633	20.6362	11.6089#7.6	98.1	6.9
8.28039	20.7491	11.6784#7.6	98.1	4.6
8.34383	20.8331	11.7293#7.6	98.1	4.6
8.40685	20.8884	11.7618#7.6	98.1	6.9
8.71914	21.1821	11.9351#7.6	98.1	6.9
9.07416	21.7486	12.2823#7.6	98.1	4.6
9.53129	22.4851	12.7338#7.6	98.1	4.6
10.092	23.3939	13.2911#7.6	98.1	4.6
10.6187	24.3332	13.8699#7.6	98.1	4.6
11.1041	25.3023	14.47#7.6	98.1	4.6
11.5453	26.1844	15.0162#7.6	98.1	4.6
11.9991	26.9805	15.5063#7.6	98.1	4.6
12.467	27.6932	15.942#7.6	98.1	4.6
12.7586	28.1438	16.2176#7.6	98.1	4.6
13.0326	28.574	16.4809#7.6	98.1	4.6
13.2897	28.985	16.7329#7.6	98.1	4.6
13.4654	29.2354	16.8853#7.6	98.1	4.6
13.5208	29.2817	16.9123#7.6	98.1	4.6
13.5974	29.2641	16.897#7.6	98.1	4.6
13.6354	29.1495	16.8212#7.6	98.1	6.9
13.7021	28.9597	16.6953#7.6	98.1	6.9
13.7976	28.6941	16.5191#7.6	98.1	4.6
13.7963	28.1998	16.2004#7.6	98.1	4.6
13.7127	27.566	15.7959#7.6	98.1	4.6
13.4975	26.8399	15.3386#7.6	98.1	4.6
13.2115	25.9836	14.801#7.6	98.1	4.6
12.8701	25.1287	14.2671#7.6	98.1	4.6
12.4723	24.2723	13.7353#7.6	98.1	6.9
12.1278	23.3717	13.1721#7.6	98.1	6.9
11.7364	22.4814	12.618#7.6	98.1	4.6
11.3016	21.5353	12.0301#7.6	98.1	4.6
10.822	20.5303	11.4066#7.6	96.3	4.6
10.3493	19.5166	10.7771#7.6	96.3	4.6
9.88186	18.4908	10.1395#7.6	96.3	4.6
9.34674	17.2733	9.38179#7.6	96.3	4.6
8.85056	16.111	8.65763#7.6	96.3	4.6
8.30094	14.8793	7.89147#7.6	90.9	4.6
7.88713	13.8086	7.22215#7.6	90.9	4.6
7.61976	13.1851	6.83376#7.6	90.9	4.6
7.50019	12.9776	6.70609#7.6	90.9	4.6
7.40674	12.8155	6.60631#7.6	52.7	4.6
7.30798	12.6441	6.50086#7.6	52.7	4.6
7.28829	12.61	6.47984#7.6	52.7	4.6
7.56872	13.0966	6.77927#7.6	23.6	4.6
7.95012	13.7584	7.18651#7.6	23.6	4.6
8.27174	14.3164	7.52992#7.6	18.1	4.6
8.66182	14.9933	7.94643#7.6	18.1	4.6
9.08062	15.72	8.3936#7.6	18.1	4.6
9.38462	16.2475	8.7182#7.6	12.7	6.9
9.67921	16.7587	9.03275#7.6	12.7	6.9
9.96538	17.2553	9.33831#7.6	12.7	6.9
10.2075	17.6754	9.59687#7.6	12.7	6.9
10.4178	18.0403	9.82135#7.6	10.9	6.9
10.5928	18.3439	10.0082#7.6	10.9	6.9
10.7331	18.5873	10.158#7.6	10.9	4.6
11.165	19.3368	10.6192#7.6	10.9	4.6
11.5834	20.6729	11.8758#7.6	10.9	4.6
11.7785	22.2401	13.7152#7.6	10.9	6.9
11.8717	23.9515	15.8719#7.6	10.9	6.9
11.8362	25.5965	18.0994#7.6	10.9	6.9
11.6743	27.1982	20.4258#7.6	10.9	6.9
11.4082	28.6545	22.6877#7.6	10.9	6.9
11.0371	29.9701	24.8927#7.6	10.9	6.9
10.4874	30.9547	26.8791#7.6	10.9	6.9
9.67887	31.8696	29.0927#7.6	10.9	11.6
8.86766	32.342	30.7222#7.6	10.9	11.6
8.10322	32.4965	31.8719#7.6	10.9	11.6
7.38299	32.3336	32.5456#7.6	12.7	20.9
6.49108	32.107	33.347#7.6	12.7	20.9
5.6353	31.5011	33.6002#7.6	12.7	20.9
4.76916	30.777	33.7093#7.6	12.7	20.9
3.83777	30.0152	33.8489#7.6	16.3	79.0
2.83803	29.2132	34.0196#7.6	16.3	79.0
1.34714	28.9822	35.5553#9.6	70.9	95.3
1.2828	30.3595	37.4631#9.6	70.9	95.3
1.27883	30.5641	37.7396#9.6	70.9	95.3
1.27038	30.9997	38.3284#9.6	89.0	97.6
1.26767	31.1393	38.517#9.6	89.0	97.6
1.26871	31.0857	38.4445#9.6	89.0	97.6
1.26983	31.0283	38.367#9.6	92.7	97.6
0.197164	30.5493	38.1834#9.6	92.7	97.6
0.56497	31.5646	38.6243#9.6	92.7	97.6
0.45814	32.2148	38.9796#9.6	92.7	97.6
0.374523	32.3257	38.6248#9.6	92.7	97.6
0.434725	31.7844	37.299#9.6	90.9	97.6
0.638944	30.5893	34.9981#9.6	90.9	97.6
0.829892	29.6303	33.127#9.6	90.9	97.6
1.06191	28.7324	31.3578#9.6	90.9	97.6
1.58617	27.4431	28.8823#9.6	90.9	97.6
2.37385	25.7072	25.6759#9.6	90.9	97.6
2.92623	23.6542	22.3364#9.6	90.9	97.6
3.54293	21.7787	19.3342#9.6	90.9	97.6
4.226	20.0744	16.6593#9.6	90.9	97.6
5.01626	19.0643	14.8769#9.6	89.0	97.6
5.76899	18.4043	13.5797#9.6	89.0	97.6
6.50268	18.2465	12.9253#9.6	87.2	97.6
7.06387	17.6204	11.7468#9.6	87.2	97.6
7.37567	16.2726	9.87178#9.6	87.2	97.6
7.48207	14.705	7.9247#9.6	85.4	95.3
7.5801	13.1979	6.11367#9.6	85.4	95.3
7.60116	12.396	5.34385#9.6	85.4	95.3
7.6667	12.0787	5.16421#9.6	85.4	95.3
8.24633	12.8098	5.64301#9.6	85.4	95.3
8.79447	13.4477	6.04718#9.6	85.4	95.3
9.31295	13.9945	6.37809#9.6	81.8	95.3
9.65672	14.2152	6.51871#9.6	81.8	95.3
9.757	14.0708	6.4431#9.6	81.8	95.3
10.0172	14.0557	6.41285#9.6	81.8	95.3
10.4192	14.3932	6.57868#9.6	81.8	95.3
10.9644	15.0845	6.94115#9.6	81.8	95.3
11.6898	16.0643	7.4614#9.6	81.8	95.3
12.6001	17.3269	8.13366#9.6	81.8	95.3
13.3631	18.4251	8.71617#9.6	81.8	95.3
13.8861	19.2198	9.14179#9.6	81.8	95.3
14.2293	19.85	9.50029#9.6	81.8	95.3
14.526	20.4194	9.83209#9.6	81.8	93.0
14.5752	20.7229	10.0282#9.6	81.8	93.0
14.4804	20.9542	10.2078#9.6	80.0	95.3
14.3824	21.2971	10.466#9.6	80.0	95.3
14.3428	21.7057	10.7642#9.6	80.0	95.3
14.3614	22.1813	11.1033#9.6	80.0	95.3
14.5558	22.748	11.4883#9.6	74.5	90.6
14.742	23.2637	11.8472#9.6	74.5	90.6
15.0392	23.7423	12.1647#9.6	74.5	90.6
15.39	24.1732	12.4271#9.6	47.2	81.3
15.7831	24.5256	12.6217#9.6	47.2	81.3
16.0285	24.7012	12.706#9.6	25.4	58.1
16.1269	24.7007	12.68#9.6	25.4	58.1
16.2299	24.7405	12.6703#9.6	25.4	58.1
16.3707	24.8091	12.6789#9.6	18.1	32.5
16.5253	25.0102	12.7838#9.6	18.1	32.5
16.6941	25.3446	12.9853#9.6	16.3	23.2
16.8982	25.6404	13.159#9.6	16.3	23.2
17.0054	25.9031	13.3035#9.6	16.3	23.2
17.038	26.0895	13.3777#7.6	14.5	18.6
17.0048	26.4472	13.5652#7.6	14.5	18.6
16.843	26.6103	13.6117#9.6	14.5	16.2
16.552	26.5794	13.5175#9.6	14.5	16.2
16.2113	26.3536	13.2995#9.6	14.5	16.2
15.8035	25.9816	12.9962#9.6	14.5	16.2
15.5264	25.7953	12.7954#9.6	12.7	13.9
15.2411	25.4432	12.4789#9.6	12.7	13.9
14.8619	25.2035	12.2713#9.6	12.7	13.9
14.5149	25.1619	12.2195#9.6	12.7	13.9
14.199	25.3184	12.3231#9.6	12.7	13.9
13.8813	25.3839	12.3685#9.6	12.7	13.9
13.7951	25.5698	12.4734#9.6	12.7	11.6
13.7892	25.7578	12.5894#9.6	12.7	11.6
13.7641	25.8985	12.6875#9.6	12.7	11.6
13.6838	25.9414	12.7324#9.6	12.7	13.9
13.5478	25.8866	12.7242#9.6	12.7	13.9
13.3479	25.7025	12.6445#9.6	12.7	11.6
13.1722	25.4872	12.5358#9.6	12.7	11.6
12.9648	25.1663	12.3411#9.6	12.7	11.6
12.6923	24.7944	12.1144#9.6	12.7	11.6
12.6881	24.9502	12.212#9.6	12.7	13.9
12.8316	25.2567	12.3761#9.6	12.7	13.9
13.0471	25.4216	12.4392#9.6	12.7	13.9
13.232	25.4192	12.4039#9.6	12.7	13.9
13.4007	25.2298	12.2554#11.5	14.5	11.6
13.5529	24.8605	11.9982#11.5	14.5	11.6
13.6778	24.4788	11.7383#11.5	14.5	11.6
13.609	23.9429	11.418#11.5	18.1	11.6
13.4692	23.3327	11.0646#11.5	18.1	11.6
13.4451	22.8518	10.7703#15.3	23.6	13.9
13.5369	22.4986	10.5341#15.3	23.6	13.9
13.771	22.3157	10.3778#15.3	23.6	13.9
14.1539	22.3342	10.3192#17.3	29.0	13.9
14.5012	22.3228	10.2487#17.3	29.0	13.9
14.6845	22.2176	10.1498#17.3	29.0	13.9
14.6526	22.3689	10.5952#17.3	34.5	13.9
14.5239	22.8937	11.6718#17.3	34.5	13.9
14.2821	23.3516	12.7931#17.3	34.5	13.9
13.958	23.535	13.6603#19.2	45.4	13.9
13.6565	23.7033	14.5341#19.2	45.4	13.9
13.4415	23.948	15.4801#19.2	45.4	13.9
13.3424	24.2851	16.4667#21.1	58.1	13.9
13.7059	23.8726	16.0578#21.1	58.1	13.9
14.5334	22.7091	14.252#21.1	72.7	13.9
15.2788	22.3229	13.6057#21.1	72.7	13.9
15.7576	22.7534	14.1421#21.1	72.7	13.9
15.5524	23.1998	14.9244#21.1	72.7	13.9
15.5442	24.0052	16.006#23.0	81.8	16.2
15.7554	24.347	16.2698#23.0	81.8	16.2
16.1867	24.2265	15.7165#23.0	81.8	16.2
16.6035	23.3608	14.1823#25.0	87.2	20.9
16.8313	22.6407	13.0145#25.0	87.2	20.9
16.8405	21.6356	11.6655#26.9	89.0	25.5
16.6312	20.342	10.1307#26.9	89.0	25.5
16.5224	19.5883	9.22447#26.9	89.0	25.5
16.9347	19.0631	8.14857#40.3	92.7	32.5
17.2118	19.8181	8.90334#61.5	92.7	39.5
17.887	21.5295	10.5714#61.5	92.7	39.5
18.6032	23.3403	12.3348#61.5	92.7	39.5
18.8611	25.649	15.1793#61.5	92.7	39.5
18.3939	27.1666	17.3825#73.0	92.7	41.8
18.1764	28.5937	19.311#73.0	92.7	41.8
17.6877	29.2535	20.4386#73.0	92.7	41.8
16.9739	29.3657	20.9154#80.7	94.5	46.5
16.2983	29.3874	21.064#80.7	94.5	46.5
15.6586	29.3188	20.8848#90.3	92.7	44.1
15.0173	29.474	20.8988#90.3	92.7	44.1
14.8385	29.6618	20.5292#90.3	92.7	44.1
14.9907	29.5447	19.5469#94.2	92.7	44.1
15.4743	29.1222	17.9484#94.2	92.7	44.1
15.5788	28.7866	16.8927#96.1	92.7	51.1
15.6413	28.9872	16.6281#96.1	92.7	51.1
15.8943	28.2645	14.983#96.1	92.7	51.1
16.4503	27.5276	13.1254#96.1	92.7	51.1
17.082	28.5725	13.6589#98.0	92.7	62.7
17.7457	29.5527	14.1465#98.0	92.7	62.7
18.478	30.4563	14.5739#98.0	92.7	62.7
19.2515	31.3179	14.9677#98.0	92.7	72.0
20.0413	32.1834	15.361#98.0	92.7	72.0
20.7627	33.0183	15.7477#98.0	92.7	81.3
21.292	33.5767	15.9978#98.0	92.7	81.3
21.6653	33.8287	16.0861#98.0	92.7	81.3
21.884	33.7751	16.0129#98.0	92.7	83.7
22.1802	33.6855	15.928#98.0	92.7	83.7
23.6761	35.4528	16.9692#98.0	92.7	86.0
25.0776	36.8769	17.7949#98.0	92.7	86.0
26.2337	37.8935	18.3786#98.0	92.7	86.0
27.1482	38.5059	18.7223#98.0	90.9	86.0
28.0262	39.2906	19.2055#98.0	90.9	86.0
29.1458	40.3811	19.867#98.0	90.9	88.3
30.0794	41.0872	20.2837#98.0	90.9	88.3
30.696	41.3668	20.416#98.0	90.9	88.3
30.9976	41.2209	20.2643#98.0	92.7	90.6
31.6372	41.6946	20.4366#98.0	92.7	90.6
31.7469	41.739	20.3829#98.0	92.7	90.6
31.4369	41.3724	20.1269#98.0	92.7	93.0
31.3757	41.6675	20.3046#98.0	92.7	93.0
31.0324	41.4993	20.184#98.0	92.7	93.0
30.1516	40.8147	19.8308#98.0	92.7	95.3
28.483	38.9913	18.8376#98.0	92.7	95.3
26.071	35.9539	17.1457#98.0	92.7	95.3
23.6112	32.7702	15.3784#98.0	94.5	95.3
21.6611	30.1738	13.9161#98.0	94.5	95.3
20.6424	28.8996	13.2115#98.0	94.5	97.6
20.2166	28.4428	13.0056#98.0	94.5	97.6
19.8311	27.972	12.7836#98.0	94.5	97.6
19.7388	27.9384	12.7796#98.0	94.5	97.6
19.4921	27.9675	12.8427#98.0	94.5	97.6
19.3867	28.256	13.0412#98.0	94.5	97.6
19.4221	28.8047	13.3756#98.0	94.5	97.6
19.469	29.2974	13.673#96.1	94.5	95.3
19.4478	29.6226	13.8788#96.1	94.5	95.3
19.4235	29.9159	14.0654#98.0	94.5	95.3
19.1304	29.8248	14.0624#98.0	94.5	95.3
18.7677	29.5492	13.9575#98.0	94.5	95.3
18.3655	29.2047	13.817#98.0	94.5	95.3
18.1313	29.0437	13.7599#96.1	92.7	95.3
17.9904	28.892	13.6914#94.2	92.7	93.0
17.8437	28.7351	13.6207#94.2	92.7	93.0
17.7043	28.5382	13.5239#94.2	92.7	93.0
17.5717	28.3006	13.4006#90.3	80.0	81.3
17.3463	27.9641	13.2327#90.3	80.0	81.3
17.0967	27.4754	12.9748#73.0	47.2	46.5
16.7947	26.8561	12.6453#73.0	47.2	46.5
16.53	26.25	12.3172#73.0	47.2	46.5
16.3931	25.7167	12.011#30.7	27.2	23.2
16.154	25.0794	11.6589#30.7	27.2	23.2
15.812	24.3361	11.2597#30.7	27.2	23.2
15.5103	23.6353	10.8795#30.7	27.2	23.2
15.2929	23.1038	10.5891#11.5	21.8	18.6
15.1759	22.7766	10.4073#11.5	21.8	18.6
15.2492	22.8094	10.4299#9.6	20.0	18.6
15.512	23.1928	10.6548#9.6	20.0	18.6
15.7834	23.6834	10.9391#9.6	20.0	18.6
15.9457	24.0074	11.0975#7.6	16.3	16.2
16.0787	24.2987	11.2144#7.6	16.3	16.2
16.4118	24.9558	11.535#7.6	16.3	16.2
16.8866	25.7316	11.9301#5.7	16.3	16.2
17.3076	26.3666	12.2476#5.7	16.3	16.2
17.6227	26.7927	12.4546#7.6	14.5	16.2
17.8723	26.9772	12.5237#7.6	14.5	16.2
18.1106	26.8803	12.4199#7.6	14.5	16.2
18.5452	26.951	12.4065#5.7	14.5	13.9
19.283	27.5776	12.731#5.7	14.5	13.9
19.8369	28.0664	12.9928#5.7	12.7	13.9
20.4143	28.4573	13.1817#5.7	12.7	13.9
21.0407	28.8171	13.3611#5.7	12.7	13.9
21.7182	29.147	13.5316#5.7	12.7	13.9
22.4453	29.4592	13.7055#5.7	12.7	13.9
23.2437	29.9195	13.9869#5.7	10.9	13.9
24.0338	30.3601	14.2626#5.7	10.9	13.9
24.7475	30.6506	14.4254#5.7	10.9	13.9
24.8156	30.5597	14.4397#5.7	12.7	13.9
24.1658	30.2099	14.4171#5.7	12.7	13.9
23.6036	29.9346	14.421#5.7	12.7	13.9
23.1271	29.7882	14.4993#5.7	10.9	13.9
22.5234	29.3586	14.388#5.7	10.9	13.9
21.7903	28.6444	14.0866#5.7	10.9	13.9
20.9707	27.8079	13.7169#5.7	10.9	13.9
20.2869	27.1753	13.4647#5.7	10.9	13.9
19.7283	26.7209	13.3126#5.7	10.9	13.9
19.1293	26.2529	13.166#5.7	10.9	13.9
18.5121	25.7373	12.9862#5.7	12.7	13.9
17.9301	25.2794	12.841#5.7	12.7	13.9
17.2551	24.8528	12.7629#5.7	12.7	13.9
16.2355	24.1474	12.5922#7.6	14.5	13.9
15.0833	23.3234	12.3761#7.6	14.5	13.9
13.9018	22.6096	12.2677#7.6	14.5	13.9
12.8312	22.0333	12.2303#11.5	14.5	13.9
13.3183	23.0733	12.9184#11.5	14.5	13.9
13.8684	24.0279	13.5058#30.7	21.8	16.2
14.5443	25.2007	14.2275#30.7	21.8	16.2
15.3436	26.5875	15.0809#30.7	21.8	16.2
16.1627	28.0089	15.9555#73.0	61.8	39.5
16.8266	29.1609	16.6644#73.0	61.8	39.5
17.2052	29.8178	17.0686#78.8	74.5	60.4
17.5137	30.3532	17.3981#84.6	83.6	81.3
17.6677	30.6203	17.5625#84.6	83.6	81.3
17.8422	30.9231	17.7488#84.6	83.6	81.3
18.0	31.1969	17.9173#88.4	87.2	88.3
18.1415	31.4426	18.0684#88.4	87.2	88.3
18.2335	31.6022	18.1667#88.4	87.2	88.3
18.1865	31.5206	18.1164#92.3	90.9	90.6
18.086	31.3462	18.0091#92.3	90.9	90.6
18.5226	31.7344	18.1565#94.2	92.7	93.0
18.9481	32.1253	18.3111#94.2	92.7	93.0
19.9964	33.5323	19.0749#94.2	92.7	93.0
21.9036	36.1002	20.4641#94.2	92.7	95.3
23.7396	38.2961	21.5776#94.2	92.7	95.3
25.9357	40.7329	22.737#96.1	94.5	95.3
28.3931	43.2436	23.848#96.1	94.5	95.3
30.9967	45.6293	24.7882#96.1	94.5	95.3
33.8185	47.9314	25.5626#96.1	94.5	95.3
36.5957	49.977	26.1347#96.1	94.5	95.3
39.1077	51.6847	26.4695#96.1	94.5	95.3
38.6103	51.8681	26.3818#96.1	94.5	95.3
37.9615	52.4428	26.5601#96.1	94.5	95.3
37.7426	53.4497	26.9466#96.1	94.5	95.3
37.1548	53.8823	27.0337#96.1	94.5	95.3
36.3158	53.9847	26.9363#96.1	94.5	95.3
35.7933	54.235	26.9271#98.0	96.3	97.6
35.5855	54.634	27.0062#98.0	96.3	97.6
35.3507	54.7318	26.9126#98.0	96.3	95.3
35.088	54.529	26.6459#98.0	96.3	95.3
34.8746	53.8653	26.1483#98.0	96.3	97.6
34.9614	53.175	25.6864#98.0	96.3	97.6
34.7676	52.2753	25.1495#98.0	96.3	97.6
34.4159	51.8645	24.9586#98.0	96.3	97.6
34.0846	51.3177	24.6795#98.0	96.3	97.6
33.7133	50.6737	24.3474#98.0	96.3	97.6
33.3005	49.9305	23.9612#98.0	96.3	97.6
32.8257	48.9877	23.4623#98.0	96.3	95.3
32.2872	47.8421	22.8492#98.0	96.3	95.3
31.7985	47.0587	22.4519#98.0	96.3	95.3
31.9379	47.2003	22.5144#98.0	96.3	97.6
32.1939	47.8442	22.8675#98.0	96.3	97.6
32.7799	49.1958	23.6#98.0	96.3	97.6
33.5641	50.8078	24.4579#98.0	96.3	97.6
34.7432	52.7581	25.4538#98.0	96.3	97.6
35.7436	54.5614	26.391#98.0	96.3	97.6
36.5687	56.2236	27.2727#98.0	96.3	97.6
37.212	57.5094	27.9538#98.0	96.3	97.6
37.4867	58.3147	28.4038#98.0	96.3	95.3
37.8787	59.1436	28.847#98.0	96.3	95.3
38.0284	59.6924	29.1605#98.0	96.3	95.3
37.9599	60.0775	29.4122#98.0	96.3	95.3
37.5215	59.973	29.4274#98.0	96.3	97.6
36.7117	59.3786	29.2062#98.0	96.3	97.6
35.6352	58.5325	28.8774#98.0	96.3	97.6
34.7451	57.9046	28.65#98.0	96.3	97.6
33.9705	57.4167	28.4885#98.0	96.3	95.3
32.9288	56.565	28.1499#98.0	96.3	95.3
31.9878	55.7072	27.7891#98.0	96.3	97.6
30.7538	54.5428	27.2913#98.0	96.3	97.6
29.2762	53.1771	26.7131#98.0	96.3	97.6
27.6791	51.7248	26.1029#98.0	96.3	95.3
26.0304	50.1812	25.4453#98.0	96.3	95.3
24.3245	48.541	24.7383#98.0	96.3	95.3
22.839	47.1715	24.1591#98.0	96.3	95.3
21.6602	45.9718	23.6294#98.0	96.3	95.3
20.9197	44.9694	23.1421#98.0	96.3	97.6
20.615	44.1608	22.6955#98.0	96.3	97.6
20.0065	42.9471	22.0529#98.0	96.3	97.6
19.6212	41.7948	21.4076#98.0	96.3	97.6
19.4535	40.9292	20.9005#98.0	96.3	97.6
19.4823	40.3119	20.5119#98.0	96.3	97.6
20.1918	40.7814	20.7575#98.0	96.3	97.6
20.5527	41.1181	20.9907#98.0	96.3	97.6
20.2629	40.8549	20.911#98.0	96.3	97.6
19.9311	40.4062	20.6938#98.0	96.3	97.6
19.9708	40.3867	20.6596#98.0	96.3	97.6
20.71	41.4469	21.2397#98.0	96.3	97.6
21.3733	42.3511	21.6986#98.0	96.3	97.6
21.838	42.9005	21.9371#98.0	96.3	97.6
22.1055	43.0969	21.9559#98.0	96.3	97.6
23.1231	44.2346	22.4506#98.0	96.3	97.6
24.1229	45.3237	22.8997#98.0	96.3	97.6
25.2337	46.4848	23.3964#98.0	96.3	97.6
25.9281	47.308	23.7877#98.0	96.3	97.6
26.2083	47.7959	24.0748#98.0	96.3	97.6
26.5239	48.3471	24.428#98.0	96.3	97.6
26.8759	48.9634	24.8484#98.0	96.3	97.6
27.4208	49.7349	25.3639#98.0	96.3	97.6
28.0759	50.3977	25.7986#98.0	96.3	97.6
29.3825	51.9264	26.7182#98.0	96.3	97.6
30.5541	53.1785	27.4931#98.0	96.3	97.6
31.2812	54.036	28.0614#98.0	96.3	97.6
31.5713	54.6593	28.5812#98.0	96.3	97.6
31.4876	54.7847	28.7904#98.0	96.3	97.6
30.9206	54.3814	28.7231#98.0	96.3	97.6
30.0341	53.4001	28.3543#98.0	96.3	97.6
29.3951	52.6942	28.1403#98.0	96.3	97.6
29.4131	52.9577	28.5266#98.0	96.3	97.6
29.2151	52.6868	28.5888#98.0	96.3	97.6
28.8003	51.8804	28.3269#98.0	96.3	97.6
28.0776	50.5978	27.768#98.0	96.3	97.6
27.5521	49.5293	27.2946#98.0	94.5	97.6
26.9666	48.4444	26.8134#98.0	94.5	97.6
26.7087	47.8552	26.5921#98.0	94.5	97.6
26.7892	47.7257	26.6064#98.0	96.3	97.6
27.5815	48.7161	27.2748#98.0	96.3	97.6
27.9745	49.1848	27.6655#98.0	94.5	97.6
28.6191	49.7911	28.0842#98.0	94.5	97.6
29.4823	50.6019	28.5771#98.0	94.5	97.6
30.0804	51.2383	28.9919#98.0	94.5	95.3
30.3116	51.5442	29.2312#98.0	94.5	95.3
30.1769	51.5207	29.2957#98.0	94.5	95.3
29.794	51.2301	29.2247#98.0	94.5	97.6
29.6566	51.2537	29.3257#98.0	94.5	97.6
29.7643	51.5914	29.5991#98.0	94.5	95.3
29.6309	51.6352	29.7404#98.0	94.5	95.3
29.2559	51.3853	29.7501#98.0	94.5	95.3
28.4145	50.6174	29.4729#96.1	94.5	95.3
27.5513	50.0818	29.3242#96.1	94.5	95.3
26.4232	49.2522	28.9954#96.1	94.5	95.3
25.443	48.5852	28.6964#96.1	94.5	95.3
24.74	48.1407	28.4717#96.1	94.5	95.3
24.3119	47.9171	28.3208#94.2	92.7	95.3
23.9101	47.6654	28.1356#94.2	92.7	95.3
23.4002	47.2019	27.8155#94.2	92.7	95.3
22.7805	46.5251	27.3594#94.2	92.7	95.3
22.1305	45.6379	26.7633#94.2	92.7	93.0
22.4199	45.9616	26.8595#94.2	92.7	93.0
22.4272	45.8359	26.6989#92.3	90.9	93.0
22.5687	45.735	26.5841#92.3	90.9	93.0
22.8449	45.6584	26.5147#92.3	90.9	93.0
23.0277	45.4825	26.4097#92.3	90.9	90.6
23.5452	45.8387	26.5639#92.3	90.9	90.6
24.3992	46.7281	26.9779#90.3	90.9	90.6
24.3623	46.8122	26.9911#90.3	90.9	90.6
24.0928	46.5718	26.7917#90.3	90.9	90.6
23.8447	46.1322	26.4614#88.4	89.0	90.6
23.596	45.4971	25.9982#88.4	89.0	90.6
23.3456	44.6644	25.4004#88.4	89.0	90.6
23.0928	43.6314	24.6661#88.4	87.2	88.3
22.9068	42.7837	24.0649#88.4	87.2	88.3
22.5893	42.0769	23.5757#88.4	87.2	88.3
22.1396	41.1075	22.8889#88.4	83.6	83.7
21.4731	39.9512	22.0941#88.4	83.6	83.7
20.5877	38.6043	21.1887#88.4	83.6	83.7
19.5647	37.1379	20.2269#84.6	74.5	76.7
18.9045	36.2038	19.571#84.6	74.5	76.7
18.7001	35.9024	19.2628#80.7	72.7	74.4
18.3215	35.2678	18.7561#80.7	72.7	74.4
17.7676	34.2978	18.0491#80.7	72.7	74.4
17.2539	33.146	17.2344#75.0	72.7	74.4
17.1045	32.3005	16.5919#75.0	72.7	74.4
17.1117	31.4767	15.9553#65.3	72.7	74.4
17.251	30.7772	15.407#65.3	72.7	74.4
17.3252	30.038	14.8432#65.3	72.7	74.4
17.3344	29.2564	14.262#36.5	65.4	72.0
17.1099	28.2596	13.5722#36.5	65.4	72.0
17.0789	27.525	13.0415#36.5	65.4	72.0
17.335	27.2127	12.7681#36.5	65.4	72.0
17.8672	27.5041	12.8518#13.4	45.4	60.4
18.4088	28.1155	13.1326#9.6	38.1	55.8
18.9647	29.0546	13.6143#9.6	38.1	55.8
19.6916	30.3232	14.2695#9.6	38.1	55.8
20.3896	31.4015	14.8117#9.6	38.1	55.8
20.9406	32.2949	15.2659#7.6	30.9	44.1
21.338	33.0642	15.6711#7.6	30.9	44.1
21.5838	33.6351	15.9807#7.6	23.6	25.5
21.7316	34.0861	16.2339#7.6	23.6	25.5
21.7331	34.2309	16.3235#7.6	23.6	25.5
21.6591	34.0081	16.1987#7.6	18.1	16.2
21.5052	33.4863	15.9027#7.6	18.1	16.2
21.2298	32.7234	15.4792#5.7	16.3	11.6
20.8427	31.6343	14.8735#5.7	16.3	11.6
20.5055	30.74	14.3796#5.7	16.3	11.6
20.0152	29.9212	13.9607#5.7	16.3	11.6
19.912	30.1154	14.1937#5.7	14.5	11.6
19.7911	30.511	14.5552#5.7	14.5	11.6
19.6415	30.9071	14.9101#5.7	14.5	11.6
19.4578	31.1881	15.1796#5.7	12.7	9.3
19.1488	31.2069	15.2888#5.7	12.7	9.3
18.8521	31.3134	15.449#5.7	12.7	9.3
18.484	31.2505	15.48#5.7	12.7	9.3
18.0949	31.0457	15.4067#5.7	12.7	9.3
17.8118	30.771	15.2687#5.7	10.9	9.3
17.5939	30.7375	15.3087#5.7	10.9	9.3
17.4832	30.6613	15.3008#5.7	10.9	9.3
17.5582	30.7056	15.3633#3.8	10.9	9.3
17.7522	30.9596	15.5839#3.8	10.9	9.3
18.207	31.4197	15.9259#5.7	10.9	6.9
18.6056	31.786	16.2307#5.7	10.9	6.9
19.2909	32.5773	16.8128#5.7	10.9	6.9
20.1223	33.6325	17.5486#3.8	10.9	6.9
20.8347	34.5287	18.1926#3.8	10.9	6.9
21.6132	35.6552	18.9733#3.8	10.9	6.9
22.4605	37.0158	19.8934#3.8	10.9	6.9
23.383	38.5857	20.9314#3.8	10.9	6.9
24.3942	40.194	21.9668#5.7	10.9	9.3
25.3813	41.7813	22.9819#5.7	10.9	9.3
26.4089	43.3861	23.9877#5.7	10.9	9.3
27.4411	44.8861	24.8991#3.8	10.9	9.3
28.4267	46.2861	25.7362#3.8	10.9	6.9
29.2478	47.3216	26.329#3.8	10.9	6.9
29.907	47.9961	26.6794#3.8	10.9	6.9
30.4107	48.454	26.9057#5.7	10.9	9.3
30.7074	48.6957	27.0235#5.7	10.9	9.3
31.0709	48.9423	27.1391#5.7	10.9	9.3
30.9854	48.519	26.8795#7.6	12.7	9.3
30.436	47.585	26.3526#7.6	12.7	9.3
29.5025	46.3037	25.6632#7.6	12.7	9.3
28.9977	45.5401	25.2465#13.4	20.0	11.6
28.9199	45.2917	25.1013#13.4	20.0	11.6
29.0853	45.6515	25.3412#13.4	20.0	11.6
29.5057	46.5016	25.8635#55.7	49.0	13.9
29.6851	47.054	26.1868#55.7	49.0	13.9
29.8697	47.3848	26.355#76.9	81.8	23.2
30.4745	48.5538	27.015#76.9	81.8	23.2
30.2788	48.611	27.0839#86.5	90.9	51.1
29.5077	47.6346	26.6027#86.5	90.9	51.1
28.8615	46.8319	26.2217#92.3	94.5	83.7
28.2878	46.8479	26.3599#92.3	94.5	83.7
28.017	47.5194	26.9201#92.3	94.5	83.7
27.4098	48.3505	27.7115#94.2	94.5	90.6
26.1113	48.4931	28.2213#94.2	94.5	90.6
24.6889	47.8621	28.2667#94.2	94.5	90.6
24.9597	48.7672	28.8919#96.1	96.3	93.0
25.2007	49.4516	29.3209#96.1	96.3	95.3
25.0256	49.9088	29.6248#96.1	96.3	95.3
25.1642	50.167	29.7842#96.1	96.3	95.3
25.5566	49.834	29.5493#96.1	96.3	95.3
25.6013	48.852	28.9136#96.1	96.3	95.3
25.3703	47.1211	27.8091#96.1	96.3	95.3
26.8024	46.5748	27.0339#96.1	96.3	95.3
27.1184	45.5934	26.1917#96.1	96.3	95.3
26.5936	44.9854	25.8222#96.1	94.5	93.0
25.9141	44.4786	25.535#96.1	94.5	93.0
26.2951	44.8808	25.7346#94.2	94.5	93.0
26.8322	45.3781	26.0217#94.2	94.5	93.0
27.3642	46.0003	26.4017#94.2	94.5	93.0
27.1304	45.8067	26.346#94.2	94.5	93.0
27.555	46.5281	26.8049#94.2	94.5	93.0
27.9421	47.2288	27.2462#94.2	94.5	93.0
27.8868	47.5894	27.5556#94.2	94.5	93.0
27.4005	47.41	27.5918#94.2	94.5	93.0
26.8284	46.8823	27.3845#94.2	94.5	93.0
26.5039	46.4623	27.1908#94.2	94.5	93.0
26.4258	46.1485	27.0103#94.2	94.5	93.0
26.3319	45.4252	26.5491#94.2	94.5	93.0
25.5678	44.1836	25.8726#94.2	94.5	93.0
25.1156	43.5441	25.5151#94.2	94.5	93.0
24.6463	42.7298	25.014#94.2	94.5	93.0
23.9552	41.5305	24.276#94.2	94.5	93.0
23.3032	40.3992	23.5798#94.2	94.5	93.0
22.5925	39.1659	22.8209#94.2	94.5	93.0
21.7424	37.6908	21.9133#92.3	94.5	93.0
20.9627	36.3379	21.0807#92.3	94.5	93.0
20.3065	35.1992	20.3801#92.3	94.5	93.0
19.8717	34.4448	19.9158#90.3	90.9	90.6
19.6568	34.072	19.6864#90.3	90.9	90.6
19.5087	33.815	19.5283#86.5	81.8	86.0
19.3213	33.4897	19.3281#86.5	81.8	86.0
19.0914	33.0907	19.0826#86.5	81.8	86.0
18.8546	32.6799	18.8298#69.2	43.6	55.8
18.6102	32.2558	18.5688#69.2	43.6	55.8
18.3225	31.7566	18.2616#15.3	23.6	20.9
18.2224	31.583	18.1548#15.3	23.6	20.9
18.3097	31.7345	18.248#15.3	23.6	20.9
18.6942	32.4016	18.6586#15.3	23.6	20.9
19.058	33.0329	19.047#7.6	18.1	16.2
19.7982	34.3173	19.8374#7.6	18.1	16.2
20.6551	35.8041	20.7523#5.7	14.5	13.9
21.4442	37.1734	21.5949#5.7	14.5	13.9
21.9628	38.0733	22.1486#5.7	14.5	13.9
22.5007	39.0067	22.723#5.7	14.5	11.6
22.9738	39.8275	23.2281#5.7	14.5	11.6
23.3835	40.5385	23.6655#5.7	14.5	11.6
23.7437	41.1634	24.0501#5.7	14.5	11.6
23.8554	41.3573	24.1694#5.7	14.5	11.6
23.934	41.4937	24.2533#5.7	14.5	11.6
23.9511	41.5233	24.2716#5.7	14.5	11.6
23.9067	41.4463	24.2242#5.7	14.5	11.6
23.8512	41.3501	24.165#5.7	14.5	11.6
23.7992	41.2597	24.1094#5.7	14.5	11.6
23.6265	40.9601	23.925#5.7	14.5	11.6
23.3525	40.4847	23.6324#5.7	14.5	11.6
23.018	39.9043	23.2753#5.7	14.5	11.6
22.622	39.2171	22.8524#5.7	14.5	11.6
22.3686	38.7775	22.5819#5.7	14.5	11.6
22.048	38.2211	22.2395#5.7	14.5	11.6
21.7434	37.6925	21.9143#5.7	14.5	11.6
21.3526	37.0144	21.497#5.7	14.5	11.6
20.9318	36.2843	21.0478#5.7	14.5	11.6
20.4796	35.4997	20.5649#5.7	14.5	11.6
20.1399	34.9101	20.2022#5.7	14.5	11.6
19.6922	34.1333	19.7241#5.7	14.5	11.6
19.1475	33.1882	19.1426#5.7	14.5	11.6
18.852	32.6755	18.8271#5.7	14.5	11.6
18.5216	32.1021	18.4742#5.7	14.5	11.6
18.0553	31.293	17.9764#5.7	14.5	11.6
17.4403	30.2258	17.3197#5.7	14.5	11.6
16.7769	29.0747	16.6113#5.7	14.5	11.6
16.2043	28.0811	15.9999#5.7	14.5	11.6
16.0551	27.4242	15.4972#5.7	14.5	11.6
16.6581	27.4377	15.2499#5.7	14.5	11.6
17.2139	27.2975	14.8901#5.7	14.5	11.6
17.7282	27.1388	14.5323#5.7	12.7	11.6
18.4103	27.2392	14.3259#5.7	12.7	11.6
18.6526	27.3114	14.1933#5.7	14.5	11.6
18.3677	27.0553	13.9435#5.7	14.5	11.6
18.0424	26.6479	13.6033#5.7	14.5	11.6
17.6609	26.1488	13.226#5.7	14.5	11.6
17.172	25.667	12.8869#5.7	12.7	11.6
16.6661	25.1938	12.5671#5.7	12.7	11.6
16.2246	24.7792	12.2849#5.7	12.7	11.6
15.8462	24.4219	12.0396#5.7	12.7	11.6
15.5501	24.1426	11.8421#5.7	12.7	9.3
15.3214	24.0141	11.7524#5.7	12.7	9.3
15.1589	24.0343	11.7784#5.7	12.7	9.3
15.1405	24.2146	11.9028#5.7	12.7	11.6
15.1757	24.3245	11.9764#5.7	12.7	11.6
15.1837	24.3487	12.0175#5.7	12.7	11.6
15.1653	24.2551	11.9888#5.7	12.7	9.3
15.0843	24.1063	11.9381#5.7	12.7	9.3
14.9404	23.9019	11.8653#5.7	12.7	11.6
14.9189	23.7021	11.7747#5.7	12.7	11.6
14.958	23.4782	11.6525#5.7	12.7	11.6
14.8003	23.0589	11.4289#5.7	12.7	9.3
14.6271	22.7462	11.2796#5.7	12.7	9.3
14.438	22.5393	11.2039#5.7	12.7	9.3
14.2382	22.2729	11.0817#5.7	12.7	9.3
14.0432	22.0147	10.9645#5.7	12.7	9.3
13.9818	22.0553	11.0283#7.6	12.7	11.6
14.0142	22.1836	11.1325#7.6	12.7	11.6
13.9673	22.1951	11.1736#5.7	12.7	9.3
13.9519	22.232	11.2273#5.7	12.7	9.3
13.9871	22.252	11.2581#5.7	12.7	9.3
13.915	22.0914	11.1814#5.7	12.7	9.3
14.0724	22.1626	11.2257#5.7	12.7	9.3
14.3278	22.2523	11.2551#5.7	12.7	9.3
14.6821	22.3609	11.2699#5.7	12.7	9.3
15.08	22.4898	11.2705#7.6	12.7	11.6
15.4274	22.5809	11.2437#7.6	12.7	11.6
15.7454	22.6894	11.2178#7.6	12.7	11.6
16.043	22.7587	11.1554#7.6	12.7	11.6
16.4054	22.8657	11.0952#7.6	12.7	11.6
16.8947	23.0621	11.083#7.6	12.7	11.6
17.2288	23.1658	11.0557#7.6	12.7	9.3
17.409	23.1772	11.0131#7.6	12.7	9.3
17.7085	23.2934	11.0283#7.6	12.7	9.3
18.0833	23.4238	11.0312#7.6	12.7	9.3
18.4588	23.4865	10.9786#7.6	12.7	9.3
18.5847	23.2651	10.7891#7.6	12.7	9.3
18.5702	22.9874	10.5884#7.6	12.7	9.3
18.4646	22.7246	10.407#7.6	12.7	9.3
18.4778	22.5179	10.2229#7.6	12.7	11.6
18.7358	22.5559	10.1449#7.6	12.7	11.6
18.8418	22.6849	10.1498#7.6	12.7	9.3
18.8174	22.6163	10.0271#7.6	12.7	9.3
18.8395	22.5702	9.90208#7.6	12.7	9.3
18.8915	22.5994	9.82049#7.6	12.7	11.6
18.8743	22.521	9.66601#7.6	12.7	11.6
18.9889	22.6835	9.65271#7.6	12.7	11.6
19.3583	23.6762	10.2018#7.6	12.7	9.3
19.4434	24.565	10.7383#7.6	12.7	9.3
19.1836	25.2004	11.1804#7.6	12.7	9.3
18.7823	25.6578	11.5379#7.6	12.7	9.3
18.4789	26.12	11.8804#7.6	12.7	9.3
18.2724	26.5884	12.209#7.6	12.7	9.3
18.1791	26.9461	12.4483#7.6	12.7	11.6
17.9894	27.0892	12.5718#7.6	12.7	11.6
17.8704	27.132	12.6201#7.6	12.7	11.6
17.7154	26.93	12.523#7.6	12.7	11.6
17.5716	26.5245	12.2974#7.6	12.7	11.6
17.4631	26.0961	12.0511#7.6	12.7	11.6
17.3696	25.68	11.8098#7.6	12.7	9.3
17.291	25.2748	11.5725#7.6	12.7	9.3
17.212	24.8749	11.3385#7.6	12.7	9.3
17.1865	24.5352	11.1322#7.6	12.7	9.3
17.2339	24.3283	10.995#7.6	12.7	9.3
17.2682	24.1608	10.8847#7.6	12.7	9.3
17.3976	24.152	10.8556#7.6	12.7	9.3
17.6224	24.3017	10.9075#7.6	12.7	9.3
17.655	24.3721	10.9453#7.6	12.7	9.3
17.534	24.376	10.9698#7.6	12.7	9.3
17.5369	24.5019	11.0475#7.6	12.7	9.3
17.5315	24.6364	11.132#7.6	12.7	11.6
17.5176	24.78	11.2237#7.6	12.7	11.6
17.6681	25.0873	11.3871#7.6	12.7	11.6
17.845	25.2883	11.4796#7.6	12.7	11.6
17.8644	25.2469	11.4504#7.6	12.7	11.6
17.7264	24.9631	11.2993#7.6	12.7	9.3
17.3701	24.3976	11.0132#7.6	12.7	9.3
16.948	23.7815	10.7076#7.6	12.7	9.3
16.7626	23.3951	10.5015#7.6	12.7	9.3
16.6151	22.9556	10.2555#7.6	12.7	9.3
16.5855	22.6009	10.0406#7.6	12.7	11.6
16.4838	22.1888	9.8032#7.6	12.7	11.6
16.3042	21.8216	9.60797#7.6	12.7	11.6
16.1043	21.5076	9.44946#7.6	12.7	11.6
15.8835	21.2458	9.32716#7.6	12.7	11.6
15.8899	21.2269	9.31428#7.6	12.7	11.6
16.0939	21.3876	9.3768#7.6	12.7	9.3
16.3313	21.5689	9.44603#7.6	12.7	9.3
16.4983	21.6826	9.48614#7.6	12.7	9.3
16.7498	21.8999	9.57511#7.6	12.7	9.3
17.0437	22.1216	9.65916#7.6	12.7	9.3
17.3808	22.3487	9.73858#7.6	12.7	11.6
17.8647	22.8395	9.98475#7.6	12.7	11.6
18.3963	23.5027	10.3562#7.6	12.7	11.6
18.737	23.9944	10.6547#7.6	12.7	9.3
19.064	24.578	11.0296#7.6	12.7	9.3
19.1854	24.865	11.2272#7.6	12.7	9.3
19.1015	24.8564	11.2479#7.6	12.7	9.3
19.0679	24.9767	11.344#7.6	12.7	9.3
19.1597	25.246	11.5234#7.6	12.7	11.6
19.2297	25.5661	11.7475#7.6	12.7	11.6
19.3031	25.8788	11.9788#7.6	12.7	9.3
19.3801	26.185	12.218#7.6	12.7	9.3
19.5346	26.5405	12.501#7.6	12.7	9.3
19.8191	26.8644	12.745#7.6	12.7	9.3
20.1411	27.2225	13.0104#7.6	12.7	11.6
20.6431	27.7469	13.3678#7.6	12.7	11.6
21.1943	28.3162	13.7335#7.6	12.7	11.6
21.7856	28.9541	14.1149#7.6	12.7	11.6
22.3029	29.4663	14.4159#7.6	12.7	11.6
22.76	29.8688	14.6405#7.6	12.7	9.3
23.1548	30.1871	14.8097#7.6	12.7	9.3
23.2613	30.373	14.9463#7.6	12.7	9.3
23.2105	30.4777	15.0585#7.6	12.7	9.3
22.9854	30.3586	15.0524#7.6	12.7	9.3
22.8663	30.4348	15.1693#7.6	12.7	9.3
22.8693	30.7012	15.3979#7.6	12.7	11.6
22.8547	30.8925	15.5693#7.6	12.7	11.6
22.8022	31.0225	15.704#7.6	12.7	11.6
22.6661	30.9814	15.727#7.6	12.7	11.6
22.6802	30.9394	15.6846#7.6	12.7	11.6
22.6735	30.9526	15.6589#7.6	12.7	11.6
22.2478	30.8671	15.6267#7.6	12.7	11.6
21.6677	30.7666	15.5955#7.6	12.7	11.6
21.1068	30.6314	15.5526#7.6	12.7	11.6
20.4221	30.1927	15.3424#7.6	12.7	11.6
19.7927	29.705	15.087#7.6	12.7	11.6
19.2164	29.1666	14.7855#7.6	12.7	11.6
18.7884	28.6784	14.4988#7.6	12.7	11.6
18.4552	28.2765	14.261#7.6	14.5	9.3
18.1042	27.8341	13.9992#7.6	14.5	9.3
17.9709	27.6142	13.8565#7.6	14.5	9.3
17.9828	27.6013	13.8343#7.6	14.5	9.3
18.1397	27.7953	13.9326#7.6	14.5	9.3
18.4002	28.1188	14.102#7.6	14.5	9.3
18.7854	28.4105	14.2193#7.6	12.7	11.6
19.0409	28.446	14.1798#7.6	12.7	11.6
19.3701	28.4409	14.0872#7.6	12.7	9.3
19.7743	28.395	13.9411#7.6	12.7	9.3
20.2708	28.3641	13.7744#7.6	12.7	9.3
20.6452	28.3644	13.6665#7.6	14.5	11.6
20.9443	28.2417	13.4768#7.6	14.5	11.6
20.9097	27.8328	13.1617#7.6	14.5	11.6
20.5423	27.2109	12.7802#7.6	12.7	11.6
20.1714	26.8025	12.551#7.6	12.7	11.6
19.7915	26.6185	12.4992#7.6	12.7	11.6
19.4312	26.4932	12.4889#7.6	12.7	11.6
19.1795	26.4759	12.5381#7.6	12.7	11.6
18.9934	26.4558	12.5711#7.6	12.7	11.6
18.7014	26.4743	12.6602#7.6	12.7	11.6
18.4285	26.4775	12.7243#7.6	12.7	9.3
18.3056	26.5987	12.8322#7.6	12.7	9.3
18.1779	26.6211	12.8688#7.6	12.7	9.3
18.0652	26.5846	12.8576#7.6	12.7	9.3
17.8335	26.3438	12.7215#7.6	12.7	9.3
17.5792	26.0694	12.5651#7.6	12.7	9.3
17.3013	25.7605	12.3881#7.6	12.7	9.3
17.0433	25.4954	12.2442#7.6	12.7	9.3
16.8106	25.3861	12.2234#7.6	12.7	11.6
16.5756	25.4179	12.3069#7.6	12.7	11.6
16.4351	25.569	12.4609#7.6	12.7	11.6
16.3858	25.7193	12.6041#7.6	12.7	11.6
16.423	25.8763	12.7423#7.6	12.7	11.6
16.4635	25.9701	12.8458#7.6	12.7	11.6
16.4701	26.0342	12.9493#7.6	12.7	11.6
16.5468	26.1049	13.0561#7.6	12.7	11.6
16.6266	26.1686	13.1414#7.6	12.7	11.6
16.7098	26.2254	13.2053#7.6	12.7	9.3
16.5029	26.017	13.1282#7.6	12.7	9.3
16.3342	25.8147	13.0174#7.6	12.7	11.6
16.2832	25.8114	13.0091#7.6	12.7	11.6
16.3783	26.0467	13.1373#7.6	12.7	11.6
16.5016	26.367	13.3091#7.6	12.7	11.6
16.5497	26.6349	13.4498#7.6	12.7	11.6
16.6841	26.9693	13.6109#7.6	12.7	9.3
16.6848	27.2223	13.7468#7.6	12.7	9.3
16.624	27.4084	13.8659#7.6	12.7	9.3
16.6227	27.5894	13.9751#7.6	12.7	9.3
16.681	27.7661	14.0746#7.6	12.7	9.3
16.8431	27.9822	14.1822#7.6	12.7	9.3
17.0789	28.2422	14.3074#7.6	12.7	9.3
17.3268	28.5392	14.4663#7.6	12.7	9.3
17.6229	28.934	14.6901#7.6	12.7	9.3
17.8509	29.2569	14.878#7.6	12.7	11.6
18.1144	29.543	15.0433#7.6	12.7	11.6
18.3689	29.7205	15.1418#7.6	12.7	11.6
18.6306	29.8364	15.1986#7.6	12.7	9.3
19.0021	30.1069	15.3421#7.6	12.7	9.3
19.3302	30.2662	15.4185#7.6	12.7	9.3
19.6159	30.315	15.4279#7.6	12.7	9.3
19.8778	30.3342	15.4226#7.6	12.7	9.3
20.0967	30.3825	15.451#7.6	12.7	9.3
20.3333	30.458	15.4972#7.6	12.7	9.3
20.5034	30.4985	15.5352#7.6	12.7	9.3
20.5663	30.4598	15.5213#7.6	12.7	9.3
20.7214	30.5111	15.5219#7.6	12.7	11.6
20.7794	30.4303	15.4355#7.6	12.7	11.6
20.8294	30.3781	15.3566#7.6	14.5	11.6
20.8716	30.3543	15.285#7.6	14.5	11.6
20.8265	30.1925	15.1084#7.6	14.5	11.6
20.8279	30.0149	14.9294#7.6	12.7	11.6
20.8756	29.8207	14.7475#7.6	12.7	11.6
21.0884	29.8839	14.742#7.6	12.7	11.6
21.465	30.2635	14.9646#7.6	12.7	11.6
21.8464	30.8276	15.3152#7.6	14.5	9.3
22.1089	31.3318	15.6329#7.6	14.5	9.3
22.3639	31.8557	15.949#7.6	14.5	11.6
22.56	32.3692	16.25#7.6	14.5	11.6
22.7551	32.8536	16.5348#7.6	12.7	9.3
23.1116	33.5017	16.9117#7.6	12.7	9.3
23.3023	33.953	17.1992#7.6	12.7	9.3
23.328	34.2091	17.3984#9.6	14.5	9.3
23.525	34.6901	17.7384#9.6	14.5	9.3
23.9493	35.5147	18.2886#9.6	14.5	9.3
24.3945	36.2783	18.8019#11.5	14.5	11.6
24.7043	36.8724	19.2273#11.5	14.5	11.6
24.88	37.2989	19.5662#11.5	14.5	11.6
24.9018	37.4101	19.7159#13.4	18.1	11.6
25.1365	37.8637	20.077#15.3	23.6	11.6
25.3324	38.0156	20.2252#15.3	23.6	11.6
25.6902	38.2052	20.382#15.3	23.6	11.6
26.2109	38.4334	20.5479#15.3	23.6	11.6
26.3037	38.6172	20.7534#19.2	54.5	11.6
25.7056	38.1676	20.6223#19.2	54.5	11.6
25.6649	38.4162	20.8543#25.0	78.1	13.9
25.5083	38.2548	20.7823#25.0	78.1	13.9
25.6877	38.299	20.7434#25.0	78.1	13.9
26.038	38.3398	20.6281#28.8	81.8	13.9
26.4671	38.3287	20.4342#28.8	81.8	13.9
26.4939	38.0788	20.1332#44.2	89.0	13.9
26.2981	37.952	19.9551#44.2	89.0	13.9
26.0302	37.7492	19.7078#44.2	89.0	13.9
25.8732	37.698	19.5685#44.2	89.0	13.9
25.8264	37.7983	19.5368#48.0	89.0	13.9
25.7773	38.0792	19.6396#48.0	89.0	13.9
25.7735	38.3414	19.7305#48.0	89.0	13.9
25.7642	38.4837	19.7396#53.8	89.0	13.9
25.7496	38.5064	19.667#53.8	89.0	13.9
25.9967	38.8244	19.7492#57.6	89.0	13.9
26.1604	39.0999	19.8347#57.6	89.0	13.9
26.2374	39.233	19.8651#57.6	89.0	13.9
26.3301	39.1756	19.8052#59.6	87.2	13.9
26.6317	39.0953	19.7223#59.6	87.2	13.9
26.985	38.7764	19.4947#61.5	87.2	13.9
27.3755	38.3777	19.2561#61.5	87.2	13.9
27.8043	37.8979	19.0055#61.5	87.2	13.9
28.193	37.4996	18.8483#61.5	87.2	13.9
27.1574	36.6199	18.6631#63.4	87.2	13.9
24.9835	35.107	18.2915#63.4	87.2	13.9
22.8115	33.6919	18.0033#63.4	87.2	13.9
20.8257	32.3472	17.6961#65.3	89.0	13.9
18.9537	30.9868	17.3263#65.3	89.0	13.9
17.7589	30.3452	17.2859#65.3	89.0	13.9
17.6998	30.6761	17.5968#65.3	89.0	13.9
18.225	31.5874	18.1575#65.3	89.0	13.9
18.8452	32.6636	18.8198#67.3	89.0	13.9
19.3434	33.5281	19.3517#67.3	89.0	13.9
19.7211	34.1835	19.755#67.3	89.0	13.9
20.0243	34.7095	20.0787#67.3	89.0	13.9
20.0158	34.6948	20.0697#67.3	89.0	13.9
19.7835	34.2918	19.8217#67.3	89.0	13.9
19.3267	33.4991	19.3339#67.3	89.0	13.9
18.7486	32.496	18.7166#67.3	89.0	13.9
18.0473	31.279	17.9678#65.3	90.9	16.2
17.5233	30.3698	17.4083#65.3	90.9	16.2
17.0431	29.5366	16.8956#65.3	90.9	16.2
16.5457	28.6734	16.3644#67.3	90.9	16.2
16.0721	27.8517	15.8588#67.3	90.9	16.2
15.6209	27.0687	15.377#67.3	90.9	16.2
16.1944	27.382	15.401#67.3	90.9	16.2
17.1113	28.2577	15.7628#67.3	90.9	16.2
17.8831	28.8801	15.9683#67.3	90.9	16.2
18.8539	29.63	16.1983#65.3	90.9	16.2
19.864	30.3173	16.3575#65.3	90.9	16.2
20.7209	30.8225	16.4254#65.3	90.9	16.2
21.6431	31.3861	16.5156#65.3	90.9	16.2
22.6337	32.0099	16.6284#65.3	90.9	16.2
23.3717	32.3049	16.5659#65.3	90.9	16.2
23.9407	32.2945	16.3125#65.3	90.9	16.2
24.2502	31.9628	15.8934#65.3	90.9	16.2
24.5438	31.6276	15.4779#61.5	87.2	16.2
24.8227	31.2876	15.0648#61.5	87.2	16.2
25.0271	30.9904	14.7205#61.5	87.2	16.2
25.1135	30.6768	14.404#53.8	80.0	13.9
24.8777	30.2667	14.1023#34.6	54.5	13.9
24.7612	29.8537	13.7815#34.6	54.5	13.9
24.5724	29.4458	13.4934#34.6	54.5	13.9
24.3142	28.9866	13.1973#34.6	54.5	13.9
23.9856	28.414	12.8375#26.9	30.9	13.9
23.5855	27.7262	12.4126#26.9	30.9	13.9
23.2425	27.1375	12.061#21.1	21.8	11.6
22.9556	26.6457	11.7815#21.1	21.8	11.6
22.7238	26.3015	11.5998#21.1	21.8	11.6
22.4637	25.9359	11.4242#19.2	18.1	11.6
22.1042	25.4433	11.1761#17.3	18.1	11.6
21.6935	24.9977	10.9814#17.3	18.1	11.6
21.1443	24.521	10.806#17.3	18.1	11.6
20.4545	23.8309	10.5068#15.3	16.3	11.6
19.9961	23.5721	10.4804#15.3	16.3	11.6
19.7676	23.7439	10.7268#15.3	16.3	11.6
19.4759	23.7988	10.8994#15.3	16.3	11.6
19.2717	23.7755	10.9671#15.3	16.3	11.6
19.1544	23.6742	10.93#15.3	16.3	11.6
19.3189	23.8227	10.9875#13.4	14.5	11.6
19.6235	24.0417	11.0456#13.4	14.5	11.6
19.9536	24.3222	11.1459#13.4	14.5	11.6
20.349	24.6957	11.2984#13.4	14.5	11.6
20.6455	24.9129	11.3551#13.4	14.5	11.6
20.5704	24.9448	11.3581#13.4	14.5	11.6
20.3277	24.7348	11.2178#13.4	14.5	11.6
19.9437	24.3071	10.9501#13.4	14.5	11.6
19.596	23.9972	10.7744#13.4	14.5	9.3
19.2517	23.617	10.5483#13.4	14.5	9.3
18.879	23.2665	10.3617#13.4	14.5	9.3
18.6838	23.1104	10.2852#13.4	14.5	9.3
18.6688	23.1277	10.3083#13.4	14.5	9.3
18.8337	23.3185	10.4311#13.4	14.5	9.3
18.8875	23.3738	10.4932#13.4	12.7	11.6
18.8303	23.294	10.495#13.4	12.7	11.6
18.6823	22.9962	10.3655#13.4	12.7	11.6
18.4038	22.4879	10.0945#13.4	12.7	11.6
18.1734	22.1834	9.94363#13.4	12.7	11.6
18.1216	22.1277	9.92995#13.4	12.7	11.6
18.1836	22.2589	10.0082#13.4	12.7	11.6
18.372	22.5475	10.1532#13.4	12.7	9.3
18.5701	22.9353	10.3649#13.4	12.7	9.3
18.7786	23.4236	10.644#13.4	12.7	11.6
18.9234	23.7735	10.8259#13.4	12.7	11.6
19.055	24.0324	10.963#13.4	12.7	11.6
19.2396	24.3139	11.113#13.4	12.7	9.3
19.4768	24.6481	11.2987#13.4	12.7	9.3
19.8696	25.0942	11.5535#13.4	12.7	9.3
20.3554	25.638	11.8992#11.5	12.7	9.3
20.8377	26.1946	12.2828#11.5	12.7	9.3
21.0759	26.6721	12.6916#11.5	12.7	9.3
20.609	26.841	13.0378#13.4	12.7	11.6
20.0523	26.8363	13.2729#13.4	12.7	11.6
19.4633	26.787	13.4834#11.5	12.7	9.3
18.7474	26.5545	13.5903#11.5	12.7	9.3
18.0362	26.1452	13.5426#11.5	12.7	9.3
17.3273	25.5579	13.3403#11.5	12.7	9.3
16.849	25.0862	13.1388#13.4	12.7	9.3
16.5523	24.692	12.9261#13.4	12.7	9.3
16.4907	24.422	12.7195#13.4	12.7	9.3
16.6148	24.345	12.5997#13.4	12.7	9.3
16.887	24.4335	12.5593#13.4	12.7	9.3
17.2611	24.6399	12.5766#11.5	12.7	9.3
17.5439	24.7319	12.5345#11.5	12.7	9.3
17.6	24.6667	12.4542#13.4	12.7	9.3
17.5726	24.5952	12.4043#13.4	12.7	9.3
17.4615	24.5172	12.3846#13.4	12.7	9.3
17.1722	24.316	12.3353#13.4	12.7	9.3
16.892	24.089	12.2598#13.4	12.7	9.3
16.7571	24.0324	12.2689#13.4	12.7	9.3
16.8	24.1873	12.3841#13.4	12.7	9.3
17.0209	24.5544	12.606#13.4	12.7	9.3
17.3513	25.0227	12.8682#13.4	12.7	9.3
17.7338	25.5437	13.1535#11.5	12.7	9.3
18.1418	26.0612	13.4247#11.5	12.7	9.3
18.5766	26.5768	13.6829#13.4	12.7	9.3
19.2075	27.3233	14.056#13.4	12.7	9.3
19.7579	27.9139	14.3292#13.4	12.7	9.3
20.2317	28.3097	14.4672#11.5	12.7	9.3
20.6305	28.5121	14.4706#11.5	12.7	9.3
21.0453	28.6858	14.4423#13.4	12.7	9.3
20.6344	28.582	14.3897#13.4	12.7	9.3
20.2526	28.5518	14.3907#13.4	12.7	9.3
19.8629	28.5381	14.4073#13.4	12.7	9.3
19.4641	28.5412	14.4395#13.4	12.7	9.3
19.0163	28.3683	14.3631#13.4	12.7	9.3
18.5183	28.019	14.1778#13.4	12.7	9.3
17.9263	27.4576	13.8577#13.4	12.7	9.3
17.3636	26.9405	13.5528#13.4	12.7	9.3
16.8282	26.4661	13.2621#13.4	12.7	9.3
16.3514	25.9937	12.9526#13.4	12.7	9.3
15.9808	25.565	12.6633#13.4	12.7	9.3
15.8521	25.2134	12.389#13.4	12.7	9.3
15.7197	24.8274	12.1026#13.4	12.7	9.3
15.6567	24.5533	11.8959#13.4	12.7	9.3
15.6286	24.3236	11.727#13.4	12.7	9.3
15.6171	24.064	11.5423#13.4	12.7	9.3
15.6233	23.8231	11.3804#13.4	12.7	9.3
15.7036	23.602	11.225#13.4	12.7	9.3
15.8581	23.4	11.0756#13.4	12.7	9.3
16.0876	23.2868	10.9759#13.4	12.7	9.3
16.3793	23.2789	10.937#13.4	12.7	9.3
16.513	23.1055	10.8202#13.4	12.7	9.3
16.4676	22.7763	10.6446#13.4	12.7	9.3
16.544	22.6162	10.5563#13.4	12.7	9.3
16.4591	22.2891	10.3759#13.4	12.7	9.3
16.2125	21.7939	10.1026#13.4	12.7	9.3
15.8791	21.2266	9.79293#13.4	12.7	9.3
15.4994	20.5828	9.43788#13.4	12.7	9.3
15.0522	19.8979	9.06692#13.4	12.7	9.3
14.5358	19.1694	8.67881#13.4	12.7	9.3
13.9641	18.3719	8.25057#13.4	12.7	9.3
13.3416	17.5365	7.79777#13.4	12.7	9.3
12.6846	16.6776	7.33106#13.4	12.7	9.3
12.2422	16.0548	7.00038#13.4	12.7	9.3
12.0129	15.666	6.80464#13.4	12.7	9.3
11.9218	15.4249	6.68081#13.4	12.7	9.3
11.944	15.3101	6.61234#13.4	12.7	9.3
11.9433	15.1213	6.48618#13.4	12.7	9.3
11.9754	15.0085	6.40324#13.4	12.7	9.3
12.1997	15.2097	6.50142#13.4	12.7	9.3
12.6171	15.7253	6.78104#13.4	12.7	9.3
13.2262	16.5679	7.25542#13.4	12.7	9.3
14.0292	17.7402	7.92614#13.4	12.7	9.3
14.5986	18.5848	8.39692#13.4	12.7	9.3
15.0106	19.3116	8.81528#13.4	12.7	9.3
15.411	20.0017	9.21176#13.4	12.7	9.3
15.7905	20.6312	9.57037#13.4	12.7	9.3
16.1503	21.2023	9.89231#13.4	12.7	9.3
16.5187	21.7434	10.1904#13.4	12.7	9.3
16.8356	22.2419	10.469#13.4	12.7	9.3
17.1027	22.7211	10.7522#13.4	14.5	9.3
17.3574	23.1354	11.0049#13.4	12.7	9.3
17.8473	23.6657	11.305#13.4	12.7	9.3
18.3201	24.1582	11.5796#13.4	12.7	9.3
18.7799	24.5735	11.7997#13.4	12.7	9.3
19.2282	24.9128	11.9661#13.4	12.7	9.3
19.276	25.1373	12.1403#13.4	12.7	9.3
19.2751	25.3916	12.3602#13.4	12.7	9.3
19.3256	25.7524	12.6498#13.4	12.7	9.3
19.3256	25.9802	12.8463#13.4	12.7	9.3
19.275	26.0757	12.9505#13.4	12.7	9.3
19.1523	26.034	12.9672#13.4	12.7	9.3
18.9815	25.9256	12.947#13.4	12.7	9.3
18.8143	25.7981	12.9088#13.4	12.7	9.3
18.65	25.6511	12.8525#13.4	12.7	9.3
18.5647	25.6157	12.8587#13.4	12.7	9.3
18.6941	25.8389	12.9957#13.4	12.7	9.3
18.9226	26.2128	13.2202#13.4	12.7	9.3
19.0285	26.446	13.3759#13.4	12.7	9.3
19.1242	26.7024	13.5561#13.4	12.7	9.3
19.1869	26.9235	13.7199#11.5	12.7	9.3
19.1375	27.0001	13.8072#11.5	12.7	9.3
19.0774	26.9901	13.8244#11.5	12.7	9.3
19.0066	26.8933	13.7713#11.5	12.7	9.3
18.878	26.6857	13.6474#11.5	12.7	9.3
18.6113	26.2447	13.3814#11.5	12.7	9.3
18.2578	25.715	13.0761#11.5	12.7	9.3
17.8934	25.1797	12.7708#11.5	12.7	9.3
17.6224	24.7981	12.5579#11.5	12.7	9.3
17.3149	24.3752	12.3251#11.5	12.7	9.3
16.7603	23.6414	11.9301#9.6	12.7	9.3
16.3404	23.1821	11.7141#9.6	12.7	9.3
15.8612	22.6913	11.4965#9.6	12.7	9.3
15.3412	22.1614	11.2626#9.6	12.7	9.3
14.7932	21.6478	11.0548#9.6	12.7	9.3
14.1825	21.0607	10.8106#9.6	12.7	9.3
13.6152	20.5551	10.618#9.6	12.7	9.3
13.0776	20.142	10.4924#9.6	12.7	9.3
12.5823	19.8078	10.4168#9.6	12.7	9.3
12.2709	19.6219	10.3901#9.6	12.7	9.3
11.9347	19.3141	10.269#9.6	12.7	9.3
11.664	19.0565	10.1629#9.6	12.7	9.3
11.5489	18.9117	10.0874#9.6	12.7	9.3
11.3655	18.7151	9.99655#9.6	12.7	9.3
11.1624	18.5344	9.92515#9.6	12.7	9.3
11.0329	18.4041	9.87108#9.6	12.7	9.3
10.8021	18.1462	9.74769#9.6	12.7	9.3
10.5301	17.9173	9.66705#9.6	12.7	9.3
10.3274	17.7424	9.6032#9.6	12.7	9.3
10.2093	17.6785	9.59872#7.6	12.7	9.3
10.2681	17.7806	9.66158#7.6	12.7	9.3
10.3069	17.8478	9.70292#7.6	12.7	9.3
10.3558	17.9326	9.75514#9.6	12.7	9.3
10.4415	18.0815	9.84671#9.6	12.7	9.3
10.4987	18.1806	9.90773#9.6	12.7	9.3
10.5294	18.2339	9.94049#9.6	12.7	9.3
10.5649	18.2955	9.97841#9.6	12.7	9.3
10.6116	18.3766	10.0283#9.6	12.7	9.3
10.7122	18.5512	10.1358#9.6	12.7	9.3
10.8272	18.7507	10.2585#9.6	12.7	9.3
10.9996	19.0498	10.4426#9.6	12.7	9.3
11.2325	19.454	10.6913#9.6	12.7	9.3
11.5405	19.9884	11.0201#9.6	12.7	9.3
11.8658	20.5529	11.3675#9.6	12.7	9.3
12.1951	21.1242	11.7191#9.6	12.7	9.3
12.5007	21.6546	12.0454#9.6	12.7	9.3
12.7128	22.0225	12.2718#9.6	12.7	9.3
12.911	22.3665	12.4835#9.6	12.7	9.3
13.096	22.6875	12.681#9.6	12.7	9.3
13.2189	22.9009	12.8123#9.6	12.7	9.3
13.2891	23.0226	12.8872#9.6	12.7	9.3
13.2135	22.8914	12.8065#9.6	12.7	9.3
12.9918	22.5068	12.5698#9.6	12.7	9.3
12.763	22.1097	12.3255#9.6	12.7	9.3
12.477	21.6135	12.0201#9.6	12.7	9.3
12.0449	20.8637	11.5588#9.6	12.7	9.3
11.5386	19.9851	11.0181#9.6	12.7	9.3
10.9174	18.9071	10.3548#9.6	12.7	9.3
11.1153	18.6841	10.0773#9.6	12.7	9.3
11.5466	18.6739	9.88326#9.6	12.7	9.3
12.0442	18.7285	9.71657#9.6	12.7	9.3
12.5647	18.8095	9.56293#9.6	12.7	9.3
13.1098	18.9173	9.42182#9.6	12.7	9.3
13.5547	18.9829	9.28729#9.6	12.7	9.3
13.9583	19.0589	9.17946#9.6	12.7	9.3
13.8255	18.8736	9.01327#9.6	12.7	9.3
13.5173	18.6425	8.85757#9.6	12.7	9.3
13.3437	18.4752	8.72655#9.6	12.7	9.3
13.304	18.371	8.61978#9.6	12.7	9.3
13.1754	18.1409	8.45793#9.6	12.7	9.3
13.0193	17.7936	8.23234#9.6	12.7	9.3
13.0445	17.6309	8.10919#7.6	12.7	9.3
13.1589	17.5648	8.04201#7.6	12.7	9.3
13.3274	17.5747	8.01064#7.6	12.7	9.3
13.3789	17.4283	7.89149#9.6	12.7	9.3
13.4933	17.407	7.84915#9.6	12.7	9.3
13.6551	17.4793	7.86408#9.6	12.7	9.3
13.9232	17.7409	8.00226#9.6	12.7	9.3
14.2261	17.9781	8.11739#9.6	12.7	9.3
14.3085	18.0923	8.19504#9.6	12.7	9.3
14.313	18.2138	8.29792#9.6	12.7	9.3
14.2117	18.288	8.40541#9.6	12.7	9.3
14.0412	18.3078	8.49578#9.6	12.7	9.3
13.8009	18.2734	8.56932#9.6	12.7	9.3
13.4145	18.1321	8.61336#9.6	12.7	9.3
12.9836	17.9941	8.67939#9.6	12.7	9.3
12.506	17.9041	8.80692#9.6	12.7	9.3
11.9769	17.8645	8.99997#9.6	12.7	9.3
11.4115	17.8609	9.23979#9.6	12.7	9.3
10.7376	17.8143	9.48896#9.6	12.7	9.3
10.6443	18.4333	10.0632#9.6	12.7	9.3
11.7584	20.3665	11.2528#9.6	12.7	9.3
12.8628	22.2829	12.4321#9.6	12.7	9.3
13.926	24.1278	13.5673#9.6	12.7	9.3
14.8958	25.8106	14.6028#9.6	12.7	9.3
15.6805	27.1723	15.4407#9.6	12.7	9.3
16.4191	28.4537	16.2292#9.6	12.7	9.3
17.0827	29.6052	16.9378#9.6	12.7	9.3
17.7068	30.6882	17.6042#9.6	12.7	9.3
18.2074	31.5569	18.1388#9.6	12.7	9.3
18.7032	32.4172	18.6681#9.6	12.7	9.3
19.1931	33.2673	19.1913#9.6	12.7	9.3
19.5673	33.9165	19.5908#9.6	12.7	9.3
19.9236	34.5348	19.9712#9.6	12.7	9.3
20.2632	35.1241	20.3339#9.6	12.7	9.3
20.5937	35.6975	20.6867#9.6	12.7	9.3
20.9514	36.3183	21.0687#9.6	12.7	9.3
21.3196	36.9572	21.4618#9.6	12.7	9.3
21.6685	37.5626	21.8344#9.6	12.7	9.3
21.9474	38.0466	22.1322#9.6	12.7	9.3
22.2199	38.5194	22.4231#9.6	12.7	9.3
22.4466	38.9127	22.6651#9.6	12.7	9.3
22.6281	39.2278	22.859#9.6	12.7	9.3
22.7665	39.4678	23.0067#9.6	12.7	9.3
22.929	39.7498	23.1803#9.6	12.7	9.3
23.1162	40.0747	23.3802#9.6	12.7	9.3
23.2604	40.3249	23.5341#9.6	12.7	9.3
23.3554	40.4897	23.6355#9.6	12.7	9.3
23.5426	40.8146	23.8354#9.6	12.7	9.3
23.9159	41.4624	24.2341#9.6	12.7	9.3
24.3473	42.2109	24.6947#9.6	12.7	9.3
24.833	43.0537	25.2133#9.6	12.7	9.3
25.2672	43.8071	25.6769#9.6	12.7	9.3
25.6513	44.4736	26.087#9.6	12.7	9.3
26.0495	45.1646	26.5122#9.6	12.7	9.3
26.4112	45.7921	26.8984#9.6	12.7	9.3
26.7375	46.3584	27.2468#9.6	12.7	9.3
27.0529	46.9057	27.5836#9.6	12.7	9.3
27.3764	47.467	27.929#9.6	12.7	9.3
27.696	48.0216	28.2703#9.6	12.7	9.3
27.9254	48.4196	28.5152#9.6	12.7	9.3
28.1586	48.8243	28.7642#9.6	12.7	9.3
28.5187	49.4491	29.1487#9.6	12.7	9.3
29.0336	50.3427	29.6985#9.6	12.7	9.3
29.5344	51.2116	30.2332#9.6	12.7	9.3
30.0427	52.0935	30.7759#9.6	12.7	9.3
30.5055	52.8967	31.2702#9.6	12.7	9.3
31.0208	53.7909	31.8204#9.6	12.7	9.3
31.5155	54.6492	32.3485#9.6	12.7	9.3
31.9911	55.4745	32.8564#9.6	12.7	9.3
32.4554	56.2801	33.3521#9.6	12.7	9.3
32.8543	56.9722	33.778#9.6	12.7	9.3
33.3442	57.8223	34.3011#9.6	12.7	9.3
33.9268	58.8332	34.9232#9.6	12.7	9.3
34.5472	59.9098	35.5857#9.6	12.7	9.3
35.0301	60.7477	36.1013#9.6	12.7	9.3
35.4785	61.5258	36.58#9.6	12.7	9.3
35.8472	62.1656	36.9737#9.6	12.7	9.3
36.1793	62.7418	37.3283#9.6	12.7	9.3
36.326	62.9964	37.485#9.6	12.7	9.3
36.2879	62.9303	37.4443#11.5	12.7	9.3
36.5993	63.4706	37.7768#11.5	12.7	9.3
36.8564	63.9168	38.0513#13.4	16.3	9.3
37.3196	64.7205	38.5459#13.4	16.3	9.3
37.8528	65.6457	39.1152#15.3	20.0	9.3
38.4578	66.6955	39.7612#15.3	20.0	9.3
39.006	67.6468	40.3466#15.3	20.0	9.3
39.4478	68.4135	40.8183#21.1	47.2	9.3
39.7848	68.9981	41.1781#21.1	47.2	9.3
40.0226	69.4107	41.432#21.1	47.2	9.3
40.3177	69.9229	41.7471#25.0	70.9	11.6
40.8609	70.8655	42.3272#25.0	70.9	11.6
41.5802	72.1135	43.0951#25.0	70.9	11.6
42.6369	73.9471	44.2234#25.0	70.9	11.6
43.4649	75.384	45.1076#30.7	80.0	9.3
43.814	75.9897	45.4803#30.7	80.0	9.3
43.6853	75.7663	45.3428#38.4	83.6	11.6
43.5401	75.5144	45.1879#38.4	83.6	11.6
42.9195	74.4375	44.5252#44.2	87.2	11.6
42.0145	72.8671	43.5589#44.2	87.2	11.6
41.178	71.4156	42.6657#44.2	87.2	11.6
40.4071	70.0779	41.8425#48.0	89.0	11.6
39.3791	68.2942	40.7449#48.0	89.0	11.6
38.1304	66.1275	39.4117#48.0	89.0	11.6
37.0546	64.2607	38.2629#55.7	90.9	11.6
36.1479	62.6875	37.2948#55.7	90.9	11.6
35.4509	61.4779	36.5506#59.6	90.9	11.6
34.6655	60.1151	35.712#59.6	90.9	11.6
33.8572	58.7125	34.8489#59.6	90.9	11.6
32.9906	57.2088	33.9236#59.6	90.9	11.6
31.8954	55.3085	32.7542#59.6	90.9	11.6
30.962	53.6888	31.7576#61.5	92.7	11.6
30.1336	52.2514	30.873#61.5	92.7	11.6
29.4075	50.9914	30.0977#63.4	92.7	13.9
28.6444	49.6673	29.2829#63.4	92.7	13.9
27.732	48.0841	28.3087#67.3	92.7	13.9
27.0389	46.8813	27.5686#67.3	92.7	13.9
26.046	45.1585	26.5085#67.3	94.5	13.9
24.9916	43.3289	25.3826#67.3	94.5	13.9
24.1463	41.8622	24.4801#65.3	94.5	13.9
23.1868	40.1972	23.4555#65.3	94.5	13.9
22.2596	38.5125	22.4001#65.3	94.5	13.9
22.5562	38.1211	21.935#65.3	92.7	13.9
22.6076	37.5317	21.4043#65.3	92.7	13.9
22.508	36.8082	20.8228#65.3	92.7	13.9
22.2727	35.9663	20.1973#65.3	92.7	13.9
21.901	35.003	19.5259#63.4	92.7	13.9
21.6387	34.1916	18.9383#63.4	92.7	13.9
21.4557	33.4875	18.4094#61.5	90.9	13.9
21.2026	32.6276	17.7761#61.5	90.9	13.9
21.1216	32.085	17.3426#61.5	90.9	13.9
20.8535	31.2283	16.7186#59.6	90.9	13.9
20.6872	30.5488	16.2037#59.6	90.9	13.9
20.6221	30.0442	15.7963#55.7	89.0	13.9
20.5532	29.5041	15.3598#55.7	89.0	13.9
20.4803	28.9266	14.8928#48.0	87.2	13.9
19.8572	27.9412	14.258#48.0	87.2	13.9
18.9108	26.7632	13.5559#48.0	87.2	13.9
17.9391	25.5631	12.8387#48.0	87.2	13.9
17.029	24.3601	12.1077#32.6	80.0	13.9
16.4971	23.7399	11.7341#32.6	80.0	13.9
16.3418	23.7004	11.7166#21.1	47.2	11.6
16.2535	23.7257	11.7365#21.1	47.2	11.6
16.2386	23.8738	11.8278#21.1	47.2	11.6
16.2972	24.1454	11.991#15.3	25.4	11.6
16.3406	24.3002	12.0855#15.3	25.4	11.6
16.3114	24.3643	12.1443#11.5	18.1	11.6
16.2651	24.2993	12.1176#11.5	18.1	11.6
16.3479	24.3888	12.171#11.5	18.1	11.6
16.5471	24.5961	12.2886#11.5	18.1	11.6
16.8529	24.9246	12.4656#11.5	18.1	11.6
17.2785	25.3952	12.7175#11.5	18.1	9.3
17.8421	25.9863	13.0394#11.5	16.3	11.6
18.3829	26.6295	13.4009#11.5	16.3	11.6
18.8709	27.1138	13.6699#11.5	14.5	9.3
19.382	27.6703	13.9909#11.5	14.5	9.3
19.9178	28.3009	14.3648#9.6	14.5	9.3
20.5084	28.9521	14.7527#9.6	14.5	9.3
21.0592	29.3701	14.9867#9.6	14.5	9.3
20.9162	29.3024	15.0298#9.6	12.7	9.3
20.6264	29.4309	15.2652#9.6	12.7	9.3
20.094	29.3139	15.3929#9.6	12.7	9.3
19.3685	29.0459	15.4733#9.6	14.5	9.3
18.5679	28.6908	15.5108#9.6	14.5	9.3
17.6019	28.0643	15.3852#9.6	14.5	9.3
16.6782	27.314	15.1345#9.6	14.5	9.3
15.8665	26.7087	14.9608#9.6	14.5	9.3
15.3399	26.3093	14.8423#9.6	14.5	9.3
15.0967	26.1143	14.7786#7.6	12.7	9.3
14.9899	25.9372	14.6717#7.6	12.7	9.3
15.1223	25.9232	14.6027#7.6	12.7	9.3
15.4125	26.07	14.6047#7.6	12.7	9.3
15.924	26.2923	14.5768#5.7	12.7	9.3
16.6137	26.6233	14.5662#5.7	12.7	9.3
17.3166	26.8861	14.491#5.7	12.7	9.3
18.0353	27.0816	14.351#5.7	12.7	9.3
18.5918	27.1714	14.1894#5.7	12.7	9.3
19.2665	27.5509	14.2271#5.7	12.7	9.3
19.4814	27.7963	14.2898#5.7	12.7	9.3
19.2748	27.8723	14.3481#5.7	12.7	9.3
19.1772	28.0129	14.4459#5.7	12.7	9.3
19.2125	28.2031	14.5604#5.7	12.7	9.3
19.33	28.5227	14.7528#5.7	12.7	9.3
19.4983	28.7606	14.8841#5.7	12.7	9.3
19.8028	29.0442	15.0251#5.7	12.7	9.3
19.9592	29.0987	15.0373#5.7	12.7	6.9
20.1238	29.0964	15.0155#5.7	12.7	6.9
20.4093	29.1398	14.9986#5.7	12.7	6.9
20.7453	29.2605	15.0311#5.7	12.7	6.9
20.8618	29.3849	15.1243#5.7	12.7	9.3
20.7399	29.498	15.2743#5.7	12.7	9.3
20.6264	29.6289	15.4361#5.7	12.7	9.3
20.4879	29.7504	15.6004#5.7	12.7	9.3
20.2161	29.7211	15.6918#5.7	12.7	9.3
19.9313	29.5527	15.6688#5.7	12.7	9.3
19.4315	29.2425	15.6158#5.7	12.7	9.3
18.9003	28.8617	15.5154#5.7	12.7	9.3
18.1734	28.1573	15.2198#5.7	12.7	9.3
17.6752	27.7533	15.0853#5.7	12.7	9.3
17.1725	27.3198	14.9272#5.7	12.7	9.3
16.8304	27.0825	14.8693#5.7	12.7	9.3
16.6479	27.0406	14.9116#5.7	12.7	9.3
16.6181	27.1484	15.0174#5.7	12.7	9.3
16.5701	27.2054	15.0871#5.7	12.7	9.3
16.5038	27.2118	15.1212#5.7	12.7	9.3
16.4146	27.1387	15.0964#5.7	12.7	9.3
16.295	26.9991	15.0273#5.7	12.7	9.3
16.1446	26.7927	14.9139#5.7	12.7	9.3
15.8403	26.4963	14.7888#5.7	12.7	6.9
15.6369	26.4806	14.8627#5.7	12.7	6.9
15.4763	26.6457	15.0741#5.7	12.7	6.9
15.7106	27.2245	15.4728#5.7	12.7	6.9
16.0616	27.8335	15.8476#5.7	12.7	6.9
16.2895	28.2289	16.0909#5.7	12.7	6.9
16.3226	28.2864	16.1263#5.7	12.7	9.3
16.2524	28.1645	16.0513#5.7	12.7	9.3
16.0716	27.8508	15.8583#5.7	12.7	6.9
15.7797	27.3442	15.5465#5.7	12.7	6.9
15.4918	26.8447	15.2391#5.7	12.7	9.3
15.1419	26.2375	14.8655#5.7	12.7	9.3
15.1625	25.911	14.5749#5.7	12.7	9.3
15.2032	25.6232	14.3091#5.7	12.7	9.3
15.0865	25.2482	14.0356#5.7	12.7	6.9
14.8885	24.8427	13.7708#5.7	12.7	6.9
14.6499	24.4894	13.5684#5.7	12.7	6.9
14.4314	24.1554	13.3741#5.7	12.7	6.9
14.2385	23.8152	13.1633#5.7	12.7	6.9
14.0043	23.3857	12.8933#5.7	12.7	6.9
13.7872	22.9774	12.6343#5.7	12.7	6.9
13.679	22.67	12.4155#5.7	12.7	6.9
13.5287	22.2728	12.1373#5.7	12.7	6.9
13.3252	21.7724	11.7929#5.7	12.7	6.9
13.0676	21.1671	11.3812#5.7	12.7	6.9
12.997	20.823	11.1146#5.7	12.7	6.9
13.0772	20.7489	11.0162#5.7	12.7	6.9
13.2748	20.9215	11.0803#5.7	12.7	6.9
13.4272	21.0466	11.1228#5.7	12.7	6.9
13.5553	21.1086	11.1213#5.7	12.7	6.9
13.7863	21.2829	11.1725#5.7	12.7	6.9
14.0816	21.5363	11.2643#5.7	12.7	9.3
14.3898	21.7889	11.3499#5.7	12.7	9.3
14.7393	22.0868	11.4568#5.7	12.7	6.9
15.1226	22.4067	11.5682#5.7	12.7	6.9
15.4977	22.6972	11.6578#5.7	12.7	6.9
15.9404	23.0222	11.748#5.7	12.7	6.9
16.5905	23.5487	11.9231#5.7	12.7	6.9
17.3902	24.2896	12.2189#5.7	12.7	9.3
18.342	25.2475	12.6366#5.7	12.7	9.3
19.4044	26.4317	13.2021#5.7	12.7	9.3
20.3891	27.4867	13.6894#5.7	12.7	9.3
21.3163	28.5047	14.1697#5.7	12.7	9.3
22.2022	29.4657	14.6184#5.7	12.7	9.3
22.9934	30.3316	15.0257#5.7	12.7	9.3
23.6322	31.1156	15.4278#5.7	12.7	9.3
24.5777	32.4707	16.191#5.7	12.7	6.9
25.4689	33.7627	16.923#5.7	12.7	6.9
25.9855	34.6272	17.447#5.7	12.7	6.9
26.2218	34.9942	17.6622#7.6	14.5	9.3
26.1786	34.8647	17.5691#7.6	14.5	9.3
26.3183	34.8495	17.4959#11.5	16.3	9.3
26.3178	34.5767	17.2608#11.5	16.3	9.3
26.2218	34.0481	16.8458#11.5	16.3	9.3
25.9158	33.1707	16.2202#11.5	16.3	9.3
25.8974	32.9731	16.0163#13.4	25.4	9.3
25.8007	33.3273	16.1954#13.4	25.4	9.3
25.74	33.5442	16.2873#15.3	50.9	9.3
25.7169	33.6809	16.3067#15.3	50.9	9.3
25.1872	33.624	16.3094#15.3	50.9	9.3
24.6804	33.6093	16.3817#21.1	69.0	9.3
24.3821	34.0118	16.7436#21.1	69.0	9.3
23.9832	34.3168	17.0367#21.1	69.0	9.3
23.4375	34.3952	17.151#28.8	76.3	9.3
22.9328	34.519	17.2782#28.8	76.3	9.3
22.2759	34.5585	17.3414#34.6	78.1	9.3
21.4977	34.1248	17.0691#34.6	78.1	9.3
21.2256	34.0319	16.9412#34.6	78.1	9.3
21.5716	34.3618	17.0339#34.6	78.1	9.3
22.5369	35.1156	17.3476#38.4	76.3	9.3
23.665	35.9015	17.6872#38.4	76.3	9.3
24.8569	36.8158	18.1407#40.3	78.1	9.3
25.7585	37.4669	18.4848#40.3	78.1	9.3
25.8106	37.5433	18.614#40.3	78.1	9.3
25.617	37.4204	18.6797#38.4	78.1	9.3
25.365	37.0028	18.5542#38.4	78.1	9.3
25.3489	36.7277	18.5241#38.4	78.1	9.3
25.7159	36.7899	18.6427#36.5	78.1	9.3
26.2024	36.7207	18.6119#36.5	78.1	9.3
26.8416	36.7724	18.6076#36.5	80.0	9.3
27.6142	36.9844	18.6529#36.5	80.0	9.3
28.2747	37.44	18.8909#36.5	80.0	9.3
28.4484	37.7081	19.0477#44.2	83.6	9.3
28.7291	38.1467	19.3055#44.2	83.6	9.3
29.118	38.7572	19.6652#51.9	87.2	9.3
29.4098	39.2499	19.9651#51.9	87.2	9.3
29.5	39.6296	20.2539#51.9	87.2	9.3
29.2883	39.7106	20.4147#55.7	89.0	9.3
29.2817	40.1741	20.8176#55.7	89.0	9.3
28.8346	40.2861	21.1063#55.7	89.0	9.3
28.312	40.466	21.486#55.7	89.0	9.3
27.8082	40.4883	21.7217#57.6	92.7	11.6
26.7744	39.6949	21.4811#57.6	92.7	11.6
25.9041	39.1457	21.381#57.6	92.7	11.6
25.1208	38.6947	21.3283#57.6	92.7	11.6
24.5476	38.4817	21.3908#57.6	92.7	11.6
24.1827	38.5061	21.5685#55.7	92.7	13.9
23.9684	38.527	21.6787#55.7	92.7	13.9
23.8008	38.49	21.7186#55.7	92.7	13.9
23.7642	38.4758	21.7221#55.7	92.7	13.9
23.8584	38.4845	21.6892#53.8	92.7	13.9
23.8712	38.1357	21.3827#48.0	90.9	13.9
24.0677	37.9584	21.1453#48.0	90.9	13.9
24.3732	37.8698	20.9376#48.0	90.9	13.9
24.7749	37.7192	20.6352#32.6	85.4	11.6
25.1685	37.3025	20.1065#32.6	85.4	11.6
25.6662	36.9202	19.5628#32.6	85.4	11.6
24.9163	36.1287	19.0247#32.6	85.4	11.6
23.9651	35.2466	18.4802#21.1	69.0	11.6
23.0664	34.3783	17.9535#21.1	69.0	11.6
22.2171	33.5209	17.4426#13.4	36.3	11.6
21.6446	33.0298	17.1606#13.4	36.3	11.6
21.3083	32.8744	17.0847#13.4	36.3	11.6
21.0784	32.7654	17.0247#11.5	21.8	11.6
20.8426	32.5656	16.9073#11.5	21.8	11.6
20.5915	32.3201	16.7589#9.6	18.1	9.3
20.3551	32.0041	16.5607#9.6	18.1	9.3
20.1513	31.6633	16.3442#9.6	18.1	9.3
19.7183	31.1968	16.0825#9.6	16.3	9.3
19.2669	30.6582	15.7669#9.6	16.3	9.3
18.7938	30.0319	15.3865#9.6	16.3	9.3
18.2973	29.3156	14.9401#9.6	14.5	9.3
18.0013	28.6511	14.4923#9.6	14.5	9.3
17.7664	27.9732	14.0348#9.6	14.5	9.3
17.4751	27.1791	13.5046#9.6	12.7	9.3
17.3131	26.7005	13.1708#7.6	12.7	9.3
17.0035	26.0922	12.7579#7.6	12.7	9.3
16.7289	25.5101	12.3517#7.6	12.7	9.3
16.3769	24.8208	11.8701#7.6	12.7	9.3
16.0439	24.1814	11.4201#7.6	12.7	9.3
15.7289	23.5897	11.0001#7.6	12.7	9.3
15.5795	23.3559	10.8257#7.6	12.7	9.3
15.3745	23.0828	10.6461#7.6	12.7	9.3
15.1992	22.759	10.4576#7.6	12.7	9.3
15.1954	22.6456	10.422#7.6	12.7	9.3
15.568	23.1069	10.7391#7.6	12.7	9.3
15.8447	23.4186	11.0039#7.6	12.7	9.3
15.9094	23.5085	11.1479#7.6	12.7	9.3
15.8523	23.4607	11.2076#7.6	12.7	9.3
15.978	23.6393	11.3897#7.6	12.7	9.3
16.0283	23.7446	11.5214#7.6	12.7	9.3
16.0035	23.777	11.6032#7.6	12.7	9.3
15.8944	23.7152	11.6233#7.6	12.7	9.3
15.6369	23.3948	11.4724#7.6	10.9	9.3
15.4475	23.0936	11.3147#7.6	10.9	9.3
15.3256	22.8106	11.1498#7.6	10.9	9.3
15.3126	22.5989	11.0238#7.6	10.9	9.3
15.2105	22.1975	10.7811#7.6	10.9	9.3
15.1842	21.9831	10.6656#7.6	12.7	6.9
15.2853	21.9922	10.7002#7.6	12.7	6.9
15.5141	22.2247	10.8851#7.6	12.7	6.9
15.8094	22.7349	11.2562#7.6	12.7	9.3
15.9231	23.1126	11.5599#7.6	12.7	9.3
15.9772	23.5263	11.8886#7.6	10.9	9.3
15.9885	23.9254	12.2019#7.6	10.9	9.3
16.0036	24.1847	12.4033#7.6	10.9	9.3
16.1225	24.5467	12.6423#7.6	10.9	9.3
16.108	24.7524	12.7885#7.6	10.9	9.3
16.1664	24.875	12.8543#7.6	10.9	9.3
16.298	24.9151	12.84#7.6	10.9	9.3
16.519	24.9289	12.7888#7.6	10.9	9.3
16.7406	24.8515	12.67#7.6	10.9	9.3
16.9229	24.6748	12.4946#7.6	10.9	9.3
17.0664	24.3982	12.2622#7.6	10.9	9.3
17.294	24.3207	12.151#7.6	10.9	9.3
17.6028	24.4265	12.1499#7.6	12.7	9.3
17.9251	24.5191	12.1313#7.6	12.7	9.3
18.2619	24.5989	12.0952#7.6	12.7	9.3
18.4003	24.5631	12.021#7.6	12.7	9.3
18.4193	24.4886	11.9485#7.6	12.7	9.3
18.5702	24.6758	12.0452#7.6	10.9	9.3
18.5706	24.6359	12.0107#7.6	10.9	9.3
18.4203	24.3688	11.8448#7.6	10.9	9.3
18.4139	24.353	11.8339#7.6	10.9	9.3
18.5515	24.5884	11.9779#7.6	10.9	9.3
18.8264	25.026	12.2374#7.6	10.9	9.3
19.2819	25.6859	12.6111#7.6	10.9	9.3
19.7732	26.3735	12.9935#7.6	10.9	9.3
20.3215	27.0834	13.3705#7.6	10.9	9.3
20.9029	27.7814	13.7231#7.6	10.9	9.3
21.7508	28.817	14.2525#7.6	10.9	9.3
22.2092	29.9384	14.9223#7.6	10.9	9.3
22.5231	31.2505	15.7705#5.7	10.9	9.3
22.8169	32.4281	16.5321#5.7	10.9	9.3
23.2112	33.697	17.3417#7.6	10.9	9.3
23.4948	34.7197	17.9965#7.6	10.9	9.3
23.6686	35.4996	18.499#7.6	10.9	9.3
23.6609	36.0091	18.8357#7.6	10.9	9.3
23.573	36.287	19.016#7.6	10.9	9.3
23.536	36.6844	19.268#7.6	10.9	9.3
23.4551	36.9357	19.4245#7.6	10.9	9.3
23.3608	37.0777	19.5125#7.6	10.9	9.3
23.2528	37.1109	19.5322#7.6	10.9	6.9
23.2194	37.3483	19.684#7.6	10.9	6.9
23.1801	37.5105	19.7828#7.6	10.9	6.9
23.1175	37.5555	19.8004#7.6	10.9	6.9
23.119	37.6869	19.8597#7.6	10.9	6.9
23.0492	37.7597	19.8959#7.6	10.9	6.9
23.008	37.8912	19.9704#7.6	10.9	9.3
22.9953	38.082	20.0834#7.6	10.9	9.3
23.0266	38.4567	20.3198#7.6	10.9	9.3
23.1402	38.9452	20.6222#5.7	10.9	9.3
23.2287	39.3002	20.8329#5.7	10.9	9.3
23.2923	39.5227	20.9527#5.7	10.9	6.9
23.2929	39.5315	20.9329#5.7	10.9	6.9
23.1824	39.4097	20.838#5.7	10.9	6.9
23.1111	39.4354	20.8337#7.6	10.9	9.3
22.8996	39.3271	20.7661#7.6	10.9	9.3
22.5599	38.9201	20.4987#7.6	10.9	9.3
22.0935	38.1784	20.0202#7.6	10.9	9.3
21.499	37.0995	19.329#7.6	10.9	9.3
20.8962	36.1408	18.7386#7.6	10.9	6.9
20.38	35.2157	18.1558#7.6	10.9	6.9
19.9485	34.3212	17.5786#7.6	10.9	6.9
19.8092	33.7433	17.1637#5.7	10.9	6.9
20.0164	33.8596	17.193#5.7	10.9	6.9
20.4243	34.4904	17.5657#5.7	9.0	4.6
20.835	35.1531	17.9693#5.7	9.0	4.6
21.0663	35.46	18.1754#5.7	9.0	4.6
21.6937	36.0171	18.4831#5.7	9.0	4.6
22.2873	36.2474	18.5736#5.7	9.0	4.6
22.8087	36.2812	18.5466#5.7	9.0	4.6
23.2595	36.1186	18.4021#5.7	9.0	4.6
23.4892	35.8782	18.2131#3.8	9.0	2.3
23.4835	35.5624	17.993#3.8	9.0	2.3
23.3363	35.1425	17.694#3.8	7.2	2.3
22.8809	34.3668	17.1676#3.8	7.2	2.3
22.2937	33.5434	16.6145#3.8	7.2	2.3
21.7257	32.6537	16.0426#3.8	9.0	2.3
21.3665	31.9742	15.6058#3.8	9.0	2.3
20.8752	31.1201	15.0943#3.8	9.0	2.3
20.3779	30.2509	14.5952#3.8	9.0	2.3
19.9553	29.3952	14.1127#3.8	9.0	2.3
19.6418	28.6066	13.6541#3.8	9.0	2.3
19.2679	27.868	13.249#3.8	9.0	2.3
18.8659	27.1637	12.8768#3.8	9.0	4.6
18.5309	26.651	12.6336#3.8	9.0	4.6
18.2614	26.327	12.5264#3.8	9.0	4.6
18.1606	26.1966	12.5325#3.8	9.0	4.6
18.1147	25.9817	12.4693#3.8	9.0	4.6
18.1373	25.8861	12.4828#5.7	9.0	4.6
18.3178	26.0375	12.6478#5.7	9.0	4.6
18.6572	26.4079	12.9459#5.7	9.0	4.6
19.0492	26.8155	13.2725#5.7	9.0	4.6
19.4952	27.2615	13.6287#5.7	9.0	4.6
20.1749	27.997	14.1666#5.7	9.0	4.6
20.0951	28.5955	14.7725#5.7	9.0	4.6
19.5622	28.8021	15.1797#3.8	9.0	2.3
18.9354	28.7573	15.4103#3.8	9.0	2.3
18.2169	28.4764	15.4765#5.7	9.0	4.6
17.5115	28.1464	15.4948#5.7	9.0	4.6
16.814	27.8197	15.5125#5.7	9.0	4.6
16.1219	27.4951	15.5297#3.8	9.0	2.3
16.0625	27.8351	15.8486#3.8	9.0	2.3
16.5405	28.6645	16.3589#3.8	9.0	2.3
16.818	29.1459	16.6552#3.8	9.0	2.3
17.0184	29.4937	16.8692#3.8	9.0	2.3
17.1644	29.747	17.0251#3.8	9.0	4.6
17.1388	29.7027	16.9978#3.8	9.0	4.6
17.144	29.7117	17.0034#3.8	9.0	4.6
17.2894	29.964	17.1586#5.7	9.0	4.6
17.4566	30.2542	17.3371#5.7	9.0	4.6
17.6463	30.5832	17.5396#3.8	9.0	2.3
17.8569	30.9487	17.7645#3.8	9.0	2.3
17.954	31.1172	17.8682#3.8	9.0	2.3
18.0992	31.3691	18.0232#5.7	9.0	4.6
18.2146	31.5694	18.1465#5.7	9.0	4.6
18.2589	31.6463	18.1938#5.7	9.0	4.6
18.2322	31.6	18.1653#5.7	9.0	4.6
18.1856	31.5191	18.1155#5.7	9.0	4.6
18.1606	31.4757	18.0888#5.7	9.0	4.6
18.1571	31.4696	18.0851#5.7	9.0	4.6
18.2121	31.565	18.1438#5.7	9.0	4.6
18.1905	31.5276	18.1208#5.7	9.0	4.6
18.0563	31.2947	17.9774#5.7	9.0	4.6
17.8088	30.8653	17.7132#5.7	9.0	4.6
17.4964	30.3232	17.3796#5.7	9.0	4.6
17.2241	29.8506	17.0888#5.7	9.0	4.6
16.9107	29.3069	16.7542#5.7	9.0	4.6
16.5962	28.7612	16.4184#5.7	9.0	4.6
16.2122	28.0947	16.0083#3.8	9.0	4.6
16.0194	27.5917	15.6571#3.8	9.0	4.6
16.2244	27.4873	15.4789#3.8	9.0	4.6
16.3606	27.3257	15.281#5.7	9.0	4.6
16.4953	27.227	15.138#5.7	9.0	4.6
16.6051	27.1316	15.0084#5.7	9.0	4.6
16.6412	26.9714	14.8547#5.7	9.0	4.6
16.6037	26.7459	14.6763#5.7	9.0	4.6
16.3648	26.3868	14.469#5.7	9.0	4.6
16.231	26.3143	14.4639#5.7	9.0	4.6
15.9313	26.1524	14.453#5.7	9.0	4.6
15.4648	25.9007	14.4361#5.7	9.0	4.6
15.0655	25.7299	14.4602#5.7	9.0	4.6
14.8095	25.6608	14.5106#5.7	9.0	4.6
15.1276	26.2127	14.8503#5.7	9.0	4.6
15.6389	27.0999	15.3962#5.7	9.0	4.6
16.2573	28.1731	16.0565#5.7	9.0	4.6
16.7195	28.9751	16.5501#5.7	9.0	4.6
17.027	29.5087	16.8784#5.7	9.0	4.6
17.3593	30.0852	17.2332#5.7	9.0	4.6
17.6902	30.6595	17.5865#5.7	9.0	4.6
17.8471	30.9317	17.754#5.7	9.0	4.6
17.8379	30.9157	17.7442#5.7	9.0	4.6
17.8683	30.9684	17.7766#5.7	9.0	4.6
17.7413	30.7481	17.6411#5.7	9.0	4.6
17.5191	30.3626	17.4039#5.7	9.0	4.6
17.3049	29.9908	17.1751#5.7	9.0	4.6
16.9617	29.3953	16.8086#5.7	9.0	4.6
16.4884	28.574	16.3032#5.7	9.0	4.6
15.9243	27.5952	15.7009#5.7	9.0	4.6
15.5847	26.8948	15.2424#5.7	9.0	4.6
15.6465	26.7957	15.1304#5.7	9.0	4.6
15.6113	26.6659	15.0335#5.7	9.0	4.6
15.479	26.5049	14.9514#5.7	9.0	4.6
15.3697	26.2526	14.7806#5.7	9.0	4.6
15.4443	26.1573	14.6663#5.7	9.0	4.6
15.5563	25.9814	14.4664#5.7	9.0	4.6
15.8616	25.8704	14.2396#5.7	9.0	4.6
16.3612	25.8242	13.9851#5.7	9.0	4.6
16.8391	25.768	13.7313#5.7	9.0	4.6
17.4918	26.09	13.7288#5.7	9.0	4.6
18.1038	26.4024	13.7355#5.7	9.0	4.6
18.5333	26.5167	13.6496#5.7	9.0	4.6
18.9441	26.6952	13.6272#5.7	9.0	4.6
19.3434	26.8951	13.6281#5.7	9.0	4.6
19.5881	26.8611	13.4937#5.7	9.0	4.6
19.7098	26.6915	13.2951#3.8	9.0	4.6
19.7566	26.3815	13.0075#3.8	9.0	4.6
19.8075	25.9719	12.6321#3.8	9.0	4.6
19.8429	25.5019	12.2114#5.7	9.0	4.6
19.974	25.1134	11.8199#5.7	9.0	4.6
20.2016	24.8052	11.4562#5.7	9.0	4.6
20.5085	24.6339	11.1765#5.7	9.0	4.6
20.8653	24.5458	10.9473#5.7	9.0	4.6
21.1578	24.3471	10.6501#5.7	9.0	4.6
21.3661	24.0028	10.2636#5.7	9.0	4.6
21.3984	23.4761	9.781#5.7	9.0	4.6
21.2914	23.4678	9.71913#5.7	9.0	4.6
21.5973	24.168	10.0981#5.7	9.0	4.6
21.899	24.938	10.5212#5.7	9.0	4.6
22.1972	25.7805	10.99#5.7	9.0	4.6
22.3812	26.3811	11.3295#5.7	9.0	4.6
22.3976	26.6098	11.4685#5.7	9.0	4.6
22.3987	26.652	11.4945#5.7	9.0	4.6
22.2059	26.3614	11.3492#5.7	9.0	4.6
21.8185	25.7369	11.0322#5.7	9.0	4.6
21.4034	25.1075	10.7171#5.7	9.0	4.6
21.0929	24.5036	10.3988#5.7	9.0	4.6
20.886	23.9233	10.0761#5.7	9.0	4.6
20.7095	23.3077	9.72597#5.7	9.0	4.6
20.5832	22.7031	9.37353#5.7	9.0	4.6
20.4222	22.1052	9.03161#5.7	9.0	4.6
19.6316	21.2981	8.67477#5.7	9.0	4.6
18.8929	20.5441	8.34139#5.7	9.0	4.6
18.16	19.7958	8.01059#5.7	9.0	4.6
17.4321	19.0932	7.71691#5.7	9.0	4.6
17.0124	18.9286	7.75525#5.7	9.0	4.6
16.4619	18.5428	7.65875#5.7	9.0	4.6
15.8708	18.1058	7.53557#5.7	9.0	4.6
15.3058	17.7595	7.47941#5.7	9.0	4.6
14.8607	17.568	7.50542#5.7	9.0	4.6
14.524	17.5146	7.60395#5.7	9.0	4.6
14.0929	17.171	7.49261#5.7	9.0	4.6
13.7065	16.8809	7.40828#5.7	9.0	4.6
13.3915	16.6525	7.3465#5.7	9.0	4.6
13.0927	16.4561	7.30542#5.7	9.0	4.6
12.8902	16.3806	7.32722#5.7	9.0	4.6
12.734	16.393	7.40498#5.7	9.0	4.6
12.5384	16.4146	7.50768#5.7	9.0	4.6
12.3885	16.4921	7.63893#5.7	9.0	4.6
12.2458	16.5486	7.74896#5.7	9.0	4.6
12.1166	16.4621	7.72983#5.7	9.0	4.6
12.0239	16.3311	7.65662#5.7	9.0	4.6
11.9071	16.1028	7.50981#5.7	9.0	4.6
11.848	15.9075	7.36671#5.7	9.0	4.6
11.8907	15.822	7.27453#5.7	9.0	4.6
11.9881	15.7552	7.17512#5.7	9.0	4.6
12.0474	15.6892	7.09267#5.7	9.0	4.6
12.053	15.6236	7.03365#5.7	9.0	4.6
12.0048	15.5581	6.99786#5.7	9.0	4.6
11.985	15.5676	7.01453#5.7	9.0	4.6
11.841	15.5327	7.04626#5.7	9.0	4.6
11.7053	15.477	7.05651#5.7	9.0	4.6
11.4991	15.2358	6.93688#5.7	9.0	4.6
11.3884	15.0658	6.83777#5.7	9.0	4.6
11.3754	15.0121	6.79702#5.7	9.0	4.6
11.3778	15.0187	6.80167#5.7	9.0	4.6
11.3556	14.933	6.73727#5.7	9.0	4.6
11.3733	14.849	6.65717#5.7	9.0	4.6
11.4309	14.7663	6.5611#5.7	10.9	4.6
11.566	14.7744	6.51004#5.7	10.9	4.6
11.8591	14.91	6.50117#5.7	10.9	4.6
12.2461	15.0827	6.48395#5.7	10.9	4.6
12.728	15.2929	6.45829#5.7	9.0	4.6
13.2389	15.4648	6.38722#5.7	9.0	4.6
13.6527	15.5875	6.31536#5.7	9.0	4.6
13.9671	15.6904	6.26906#5.7	9.0	4.6
14.2348	15.7888	6.23898#5.7	9.0	4.6
14.6602	16.2231	6.431#5.7	10.9	4.6
14.9877	16.5574	6.57882#5.7	10.9	4.6
15.2487	16.8238	6.69661#5.7	10.9	4.6
15.444	17.0232	6.78477#5.7	9.0	4.6
15.7322	17.4422	7.02253#5.7	9.0	4.6
16.1667	18.1596	7.45486#5.7	9.0	4.6
16.519	18.7784	7.83749#5.7	9.0	4.6
16.7622	19.206	8.10206#5.7	10.9	4.6
17.0443	19.7058	8.41217#5.7	10.9	4.6
17.289	20.2067	8.7392#5.7	9.0	4.6
17.4467	20.6214	9.02931#5.7	9.0	4.6
17.5645	20.948	9.26057#5.7	9.0	4.6
17.6971	21.2154	9.43437#5.7	10.9	4.6
17.8992	21.4672	9.5648#5.7	10.9	4.6
18.1714	21.7041	9.65229#5.7	10.9	4.6
18.5	21.9808	9.74994#5.7	10.9	4.6
18.834	22.2717	9.85753#5.7	9.0	4.6
19.123	22.5102	9.93915#5.7	9.0	4.6
19.2636	22.719	10.0316#5.7	9.0	4.6
19.3141	22.9213	10.1385#5.7	9.0	4.6
19.366	23.136	10.2545#5.7	9.0	4.6
19.3993	23.3177	10.3428#5.7	10.9	4.6
19.414	23.467	10.4038#5.7	10.9	4.6
19.5658	23.6994	10.4811#5.7	9.0	4.6
19.6098	23.7468	10.4393#5.7	9.0	4.6
19.5754	23.6688	10.3124#5.7	9.0	4.6
19.4734	23.5282	10.1596#5.7	9.0	4.6
19.4198	23.4719	10.0653#5.7	9.0	4.6
19.7234	23.9998	10.336#5.7	9.0	4.6
19.9451	24.4549	10.5782#5.7	10.9	4.6
20.0757	24.8218	10.7822#5.7	10.9	4.6
20.071	25.04	10.9187#5.7	10.9	4.6
20.0844	25.2449	11.0434#5.7	9.0	4.6
20.1159	25.437	11.157#5.7	9.0	4.6
20.0264	25.458	11.1864#5.7	10.9	4.6
19.877	25.3831	11.1672#5.7	10.9	4.6
19.7506	25.3248	11.1541#5.7	10.9	4.6
19.6467	25.2829	11.147#5.7	10.9	4.6
19.3921	25.0638	11.0575#5.7	10.9	4.6
19.1845	24.885	10.9843#5.7	10.9	4.6
18.9975	24.6854	10.8945#5.7	10.9	4.6
18.8012	24.4281	10.7706#5.7	9.0	4.6
18.6253	24.2047	10.664#5.7	9.0	4.6
18.4429	23.9653	10.5486#5.7	10.9	4.6
18.1608	23.6233	10.3877#5.7	10.9	4.6
17.8059	23.1698	10.1709#5.7	10.9	4.6
17.5778	22.9943	10.1327#5.7	10.9	4.6
17.4174	22.9095	10.1505#5.7	10.9	4.6
17.221	22.7362	10.1144#5.7	10.9	4.6
17.1524	22.6935	10.1465#5.7	10.9	4.6
17.2395	22.8313	10.2788#5.7	10.9	4.6
17.4573	23.1048	10.4879#5.7	10.9	4.6
17.8064	23.5149	10.7744#5.7	10.9	4.6
18.3055	24.0248	11.1138#5.7	10.9	4.6
18.8639	24.6016	11.4977#5.7	10.9	4.6
19.3821	25.1185	11.8347#5.7	10.9	4.6
19.8618	25.5774	12.126#5.7	10.9	4.6
20.2547	25.9952	12.3927#5.7	10.9	4.6
20.6509	26.4015	12.6392#5.7	10.9	4.6
20.4701	26.3534	12.6768#5.7	10.9	4.6
20.1512	26.0441	12.5468#5.7	10.9	4.6
19.8778	25.7378	12.4#5.7	10.9	4.6
19.6518	25.4759	12.271#5.7	10.9	4.6
19.5251	25.2546	12.1346#5.7	10.9	4.6
19.4497	25.1168	12.048#5.7	10.9	4.6
19.2803	24.8926	11.9273#5.7	10.9	4.6
19.1446	24.7249	11.8409#5.7	10.9	4.6
18.9502	24.5233	11.7505#5.7	10.9	4.6
18.8793	24.5132	11.7722#5.7	10.9	4.6
18.8553	24.617	11.8518#5.7	10.9	4.6
18.6881	24.6661	11.9117#5.7	10.9	4.6
18.4037	24.6513	11.936#5.7	10.9	4.6
18.0258	24.4889	11.8633#5.7	10.9	4.6
17.5836	24.1848	11.7005#5.7	10.9	4.6
17.2554	24.0214	11.6115#5.7	10.9	4.6
17.0328	23.9613	11.5726#5.7	10.9	4.6
16.7483	23.7831	11.4589#5.7	10.9	4.6
16.3772	23.4874	11.2843#5.7	10.9	4.6
16.0235	23.203	11.1162#5.7	10.9	4.6
15.7037	22.9706	10.9868#5.7	10.9	4.6
15.3568	22.7938	10.9085#5.7	10.9	4.6
14.9817	22.6723	10.8812#5.7	10.9	4.6
14.6326	22.6349	10.913#5.7	10.9	4.6
14.3558	22.6878	11.0026#5.7	10.9	4.6
14.1251	22.7464	11.0892#5.7	10.9	4.6
13.6709	22.4992	11.0052#5.7	10.9	4.6
13.2684	22.3058	10.9501#5.7	10.9	4.6
12.8671	22.0221	10.818#5.7	10.9	4.6
12.4657	21.6472	10.6083#5.7	10.9	4.6
12.1657	21.2575	10.3575#5.7	10.9	4.6
11.92	20.9094	10.1105#5.7	10.9	4.6
11.7729	20.7459	9.97786#5.7	10.9	4.6
11.7238	20.7664	9.95902#5.7	10.9	4.6
11.745	20.894	10.0104#5.7	9.0	4.6
11.8365	21.1293	10.1322#5.7	9.0	4.6
11.9126	21.2597	10.1897#5.7	10.9	4.6
11.8717	21.2586	10.1849#5.7	10.9	4.6
11.721	21.1178	10.1085#5.7	10.9	4.6
11.4601	20.8369	9.96044#5.7	10.9	4.6
11.3106	20.6536	9.85982#5.7	10.9	4.6
10.9445	20.2306	9.64456#5.7	10.9	4.6
10.557	19.7506	9.40222#5.7	10.9	4.6
10.1574	19.2186	9.13361#5.7	9.0	4.6
9.78606	18.6692	8.85007#5.7	9.0	4.6
9.4482	18.1773	8.60815#5.7	9.0	4.6
9.14267	17.7413	8.40704#5.7	9.0	4.6
8.85946	17.3615	8.25008#5.7	9.0	4.6
8.62809	16.9907	8.09328#5.7	10.9	4.6
8.50158	16.7989	8.04503#5.7	10.9	4.6
8.50965	16.7536	8.07942#5.7	9.0	4.6
8.65231	16.8544	8.19658#5.7	9.0	4.6
8.86251	17.0507	8.36154#5.7	9.0	4.6
9.03458	17.2006	8.50069#5.7	9.0	4.6
9.05162	17.2147	8.56806#5.7	9.0	4.6
8.91369	17.0932	8.56387#5.7	9.0	4.6
8.67456	16.8807	8.51619#5.7	9.0	4.6
8.49069	16.6594	8.45148#5.7	9.0	4.6
8.22459	16.3308	8.33477#5.7	9.0	4.6
8.05847	16.16	8.30604#5.7	10.9	4.6
8.11995	16.1939	8.38701#5.7	10.9	4.6
8.40276	16.334	8.50511#5.7	10.9	4.6
8.66708	16.4063	8.57365#5.7	10.9	4.6
9.01407	16.4085	8.57365#5.7	10.9	4.6
9.44489	16.3406	8.5051#5.7	10.9	4.6
9.90172	16.299	8.43602#5.7	9.0	4.6
10.0984	16.1918	8.36352#5.7	9.0	4.6
9.58734	15.7362	8.18991#5.7	9.0	4.6
9.16879	15.3348	8.0233#5.7	9.0	4.6
8.81875	14.9806	7.86804#5.7	9.0	4.6
8.51216	14.6817	7.74182#5.7	9.0	4.6
8.43167	14.594	7.70068#5.7	9.0	4.6
8.37207	14.4905	7.63705#5.7	9.0	4.6
8.28868	14.3458	7.54801#5.7	9.0	4.6
8.33603	14.3374	7.52043#5.7	9.0	4.6
8.57696	14.5293	7.5825#5.7	10.9	4.6
8.5833	14.3972	7.46579#5.7	10.9	4.6
8.74972	14.4691	7.45634#5.7	10.9	4.6
8.98195	14.5984	7.46818#5.7	10.9	4.6
9.23828	14.7559	7.49394#5.7	10.9	4.6
9.51956	14.942	7.53372#5.7	10.9	4.6
9.77807	15.0874	7.54817#5.7	10.9	4.6
9.97239	15.1749	7.54013#5.7	10.9	4.6
10.1859	15.2849	7.54337#5.7	10.9	4.6
10.3188	15.2587	7.46367#5.7	10.9	4.6
10.3714	15.0961	7.30077#5.7	10.9	4.6
10.6412	15.2293	7.29984#5.7	10.9	4.6
11.0077	15.4767	7.35592#5.7	10.9	4.6
11.3777	15.7693	7.44942#5.7	10.9	4.6
11.4496	15.8613	7.46899#5.7	10.9	4.6
11.5698	16.0357	7.53878#5.7	10.9	4.6
11.8639	16.3417	7.66626#5.7	10.9	4.6
12.1873	16.6684	7.80499#5.7	10.9	4.6
12.5274	17.0123	7.96368#5.7	10.9	4.6
12.8831	17.2429	8.04858#5.7	10.9	4.6
13.037	17.3967	8.14098#5.7	10.9	4.6
12.905	17.4414	8.23627#5.7	10.9	4.6
12.7359	17.5298	8.38516#5.7	10.9	4.6
12.5646	17.6363	8.55058#5.7	10.9	4.6
12.2794	17.6419	8.67801#5.7	10.9	4.6
11.969	17.6342	8.80464#5.7	10.9	4.6
11.6936	17.7345	9.0095#5.7	10.9	4.6
11.5279	18.0075	9.31622#5.7	10.9	4.6
11.2818	18.1538	9.5482#5.7	10.9	4.6
11.0383	18.2788	9.76063#5.7	10.9	4.6
10.8943	18.492	10.0065#5.7	10.9	4.6
10.8365	18.7669	10.2685#5.7	10.9	4.6
11.2727	19.5238	10.7342#5.7	10.9	4.6
11.6863	20.2414	11.1758#5.7	10.9	4.6
12.0979	20.9556	11.6153#5.7	10.9	4.6
12.4625	21.5884	12.0047#5.7	10.9	4.6
12.8002	22.1742	12.3652#5.7	10.9	4.6
13.1041	22.7016	12.6897#5.7	10.9	4.6
13.3754	23.1723	12.9793#5.7	9.0	4.6
13.6196	23.5961	13.2401#5.7	9.0	4.6
13.804	23.916	13.437#5.7	9.0	4.6
13.9499	24.1691	13.5927#5.7	9.0	4.6
14.0278	24.3044	13.6759#5.7	9.0	4.6
14.055	24.3516	13.705#5.7	9.0	4.6
14.0316	24.3111	13.6801#5.7	9.0	4.6
13.9485	24.1667	13.5913#5.7	9.0	4.6
13.8747	24.0387	13.5125#5.7	9.0	4.6
13.8151	23.9354	13.4489#5.7	9.0	4.6
13.7559	23.8326	13.3857#5.7	9.0	4.6
13.6969	23.7302	13.3227#5.7	9.0	4.6
13.5214	23.4257	13.1353#5.7	10.9	4.6
13.2545	22.9625	12.8502#5.7	10.9	4.6
12.8231	22.2139	12.3896#5.7	9.0	4.6
12.3649	21.4189	11.9004#5.7	9.0	4.6
11.8783	20.5746	11.3808#5.7	9.0	4.6
11.624	20.0277	11.0182#5.7	9.0	4.6
12.0989	20.248	11.0043#5.7	9.0	4.6
12.6038	20.5861	11.0791#5.7	9.0	4.6
13.1405	21.0431	11.2429#5.7	9.0	4.6
13.5619	21.3817	11.3541#5.7	9.0	4.6
13.8485	21.5734	11.3964#5.7	9.0	4.6
13.9975	21.5715	11.3308#5.7	9.0	4.6
14.0094	21.3761	11.157#5.7	9.0	4.6
13.9706	21.1166	10.9498#5.7	9.0	4.6
13.8922	20.8294	10.7356#5.7	9.0	4.6
13.8872	20.6593	10.591#5.7	9.0	4.6
13.8748	20.5093	10.4669#5.7	9.0	4.6
13.8548	20.3788	10.3629#5.7	9.0	4.6
13.9029	20.3539	10.3208#5.7	9.0	4.6
14.0064	20.3983	10.3146#5.7	9.0	4.6
14.0721	20.3977	10.2858#5.7	9.0	4.6
14.1154	20.3921	10.2624#5.7	10.9	4.6
14.1365	20.3816	10.2443#5.7	10.9	4.6
14.1738	20.4093	10.2522#5.7	10.9	4.6
14.2261	20.4862	10.2961#5.7	10.9	4.6
14.3711	20.6794	10.4005#5.7	10.9	4.6
14.5387	20.9232	10.5389#5.7	10.9	4.6
14.7293	21.2184	10.7117#5.7	10.9	4.6
14.935	21.5178	10.8817#5.7	10.9	4.6
15.1506	21.8164	11.0468#5.7	10.9	4.6
15.3419	22.055	11.1705#5.7	10.9	4.6
15.5131	22.2112	11.2317#5.7	10.9	4.6
15.6962	22.3237	11.2502#5.7	10.9	4.6
15.8916	22.393	11.226#5.7	10.9	4.6
16.1789	22.6287	11.306#5.7	10.9	4.6
16.4946	22.843	11.3554#5.7	10.9	4.6
16.8398	23.0367	11.3742#5.7	10.9	4.6
17.0944	23.1455	11.3587#5.7	10.9	4.6
17.2596	23.1786	11.3163#5.7	10.9	4.6
17.2551	23.0397	11.1984#5.7	10.9	4.6
17.1736	22.8417	11.0625#5.7	10.9	4.6
17.1	22.6655	10.9421#5.7	10.9	4.6
17.0342	22.5106	10.8367#5.7	10.9	4.6
16.9432	22.3396	10.7282#5.7	10.9	4.6
16.8613	22.2977	10.7272#5.7	10.9	4.6
16.7797	22.254	10.7246#5.7	10.9	4.6
16.6602	22.1824	10.7141#5.7	10.9	4.6
16.4172	21.9835	10.6469#5.7	10.9	4.6
16.2665	21.9953	10.7219#5.7	10.9	4.6
16.0697	21.9788	10.7921#5.7	10.9	4.6
15.9092	22.1115	10.9756#5.7	10.9	4.6
15.7779	22.3696	11.2547#5.7	10.9	4.6
15.5658	22.5436	11.4959#5.7	10.9	4.6
15.2816	22.6389	11.7003#5.7	10.9	4.6
14.9243	22.6559	11.8684#5.7	10.9	4.6
14.5802	22.6189	11.9843#5.7	10.9	4.6
14.4793	22.9051	12.2746#5.7	10.9	4.6
14.2438	23.0231	12.4775#5.7	10.9	4.6
14.002	23.0363	12.5929#5.7	10.9	4.6
13.6761	22.899	12.6143#5.7	10.9	4.6
13.2649	22.6105	12.542#5.7	10.9	4.6
12.9759	22.4791	12.5528#5.7	10.9	4.6
13.2075	22.8811	12.8001#5.7	10.9	4.6
13.4381	23.2812	13.0463#5.7	10.9	4.6
13.7101	23.7531	13.3368#5.7	10.9	4.6
14.0244	24.2985	13.6723#5.7	10.9	4.6
14.3536	24.8697	14.0238#5.7	10.9	4.6
14.7669	25.5868	14.4651#5.7	10.9	4.6
15.1855	26.3132	14.9121#5.7	10.9	4.6
15.5234	26.8995	15.2729#5.7	10.9	4.6
15.7816	27.3477	15.5486#5.7	10.9	4.6
16.07	27.848	15.8565#5.7	10.9	6.9
16.3298	28.2989	16.134#5.7	10.9	6.9
16.5021	28.5979	16.318#5.7	10.9	6.9
16.5875	28.7461	16.4092#5.7	10.9	4.6
16.8358	29.1769	16.6742#5.7	10.9	4.6
17.0004	29.4626	16.85#7.6	10.9	6.9
17.0652	29.575	16.9192#7.6	10.9	6.9
17.0821	29.6042	16.9372#7.6	10.9	6.9
16.974	29.4168	16.8218#7.6	10.9	4.6
16.7689	29.0607	16.6028#7.6	10.9	4.6
16.535	28.655	16.3531#7.6	10.9	4.6
16.3027	28.2519	16.105#9.6	12.7	4.6
15.9095	27.5695	15.6851#9.6	12.7	4.6
15.354	26.6057	15.0921#9.6	14.5	6.9
14.6729	25.4237	14.3647#9.6	14.5	6.9
13.9352	24.1437	13.5771#9.6	14.5	6.9
13.2382	22.9342	12.8329#9.6	14.5	6.9
12.734	22.0594	12.2945#11.5	14.5	6.9
12.2684	21.2516	11.7974#11.5	14.5	6.9
11.9655	20.726	11.474#11.5	14.5	6.9
11.7545	20.3598	11.2487#11.5	16.3	6.9
11.6348	20.152	11.1208#11.5	16.3	6.9
11.4755	19.8757	10.9508#13.4	20.0	6.9
11.2763	19.53	10.7381#13.4	20.0	6.9
10.9497	18.9633	10.3894#13.4	20.0	6.9
10.591	18.3409	10.0064#13.4	23.6	6.9
10.199	17.6607	9.58778#13.4	23.6	6.9
9.80266	16.9729	9.16457#15.3	25.4	6.9
9.34408	16.1772	8.67491#15.3	25.4	6.9
8.84144	15.305	8.13822#15.3	25.4	6.9
8.38679	14.5161	7.65277#15.3	29.0	6.9
7.78747	13.4761	7.01284#15.3	27.2	6.9
7.69721	12.9704	6.6152#15.3	27.2	6.9
8.22621	13.1437	6.5375#15.3	27.2	6.9
8.55933	13.0263	6.29313#13.4	25.4	6.9
8.93748	13.0037	6.11119#13.4	25.4	6.9
9.21544	12.8182	5.8317#13.4	25.4	6.9
9.33844	12.473	5.48106#13.4	20.0	6.9
9.2913	11.9453	5.0459#13.4	20.0	6.9
9.23248	11.4071	4.60675#11.5	16.3	6.9
9.15098	10.9169	4.2188#11.5	16.3	6.9
9.22503	10.6746	3.97791#11.5	16.3	6.9
9.89485	11.3584	4.28022#11.5	16.3	6.9
10.6389	12.1179	4.61603#11.5	16.3	6.9
11.1716	12.6617	4.85646#9.6	14.5	6.9
11.8746	13.3794	5.17376#9.6	14.5	6.9
12.4544	14.0625	5.55712#9.6	14.5	6.9
12.7409	14.531	5.92127#9.6	12.7	6.9
12.7786	14.9164	6.40086#9.6	12.7	6.9
12.5313	15.1601	6.95105#9.6	12.7	6.9
12.3355	15.5864	7.69788#9.6	12.7	6.9
12.2173	16.0896	8.47667#9.6	12.7	6.9
12.2877	16.2797	8.66619#9.6	12.7	6.9
12.4285	16.1115	8.2602#7.6	12.7	6.9
12.3382	15.8521	7.81417#7.6	12.7	6.9
12.3243	15.4567	7.1722#7.6	12.7	6.9
12.2636	14.6752	6.03723#7.6	12.7	6.9
12.3976	14.6901	5.89228#7.6	12.7	6.9
12.5094	14.7901	5.93396#7.6	12.7	6.9
12.7853	15.1535	6.14497#7.6	12.7	6.9
13.2578	15.8907	6.58272#7.6	12.7	6.9
13.454	16.3268	6.85347#7.6	12.7	6.9
13.4871	16.5945	7.03824#7.6	12.7	6.9
13.3974	16.6927	7.12589#7.6	10.9	6.9
13.3988	16.8172	7.20593#7.6	10.9	6.9
13.4914	16.9683	7.27863#7.6	10.9	6.9
13.7947	17.1943	7.37217#7.6	10.9	6.9
14.0158	17.3377	7.42757#7.6	10.9	6.9
14.0974	17.3639	7.433#7.6	10.9	6.9
14.0138	17.0564	7.23248#7.6	10.9	6.9
13.6933	16.4212	6.83934#7.6	10.9	6.9
13.459	15.8969	6.5111#7.6	10.9	6.9
13.341	15.5173	6.26921#7.6	10.9	6.9
13.3902	15.3668	6.1632#7.6	10.9	6.9
13.6067	15.4448	6.19273#5.7	10.9	4.6
13.5619	15.3809	6.17607#5.7	10.9	4.6
13.3221	15.2735	6.18639#5.7	10.9	4.6
13.1882	15.2882	6.25664#7.6	10.9	6.9
13.0582	15.2579	6.28624#7.6	10.9	6.9
12.9914	15.1153	6.19193#7.6	10.9	6.9
13.2678	15.3785	6.30033#7.6	10.9	6.9
13.7672	15.9768	6.60203#7.6	10.9	4.6
14.1793	16.4344	6.81994#7.6	10.9	4.6
14.7265	17.0334	7.10174#7.6	10.9	6.9
15.1902	17.4973	7.3029#7.6	10.9	6.9
15.2258	17.7088	7.42937#7.6	10.9	6.9
15.3002	17.936	7.57183#5.7	10.9	4.6
15.8177	18.6903	8.02426#5.7	10.9	4.6
16.204	19.2843	8.3999#5.7	10.9	4.6
16.3495	19.6435	8.65682#7.6	10.9	6.9
16.3382	19.8827	8.86815#7.6	10.9	6.9
16.298	20.0456	9.02587#7.6	10.9	6.9
16.3365	20.2876	9.21818#7.6	10.9	6.9
16.5698	20.8274	9.58373#7.6	10.9	6.9
16.8911	21.591	10.0823#7.6	10.9	6.9
17.0195	22.1035	10.4324#7.6	10.9	6.9
17.0802	22.6331	10.7988#7.6	10.9	6.9
17.1815	23.1329	11.14#7.6	10.9	6.9
17.2784	23.5947	11.4537#7.6	10.9	6.9
17.4095	24.0326	11.7607#7.6	10.9	6.9
17.4462	24.3281	11.9898#7.6	10.9	4.6
17.8652	25.0561	12.4657#7.6	10.9	4.6
18.6682	26.2189	13.1902#7.6	10.9	6.9
19.2702	27.1109	13.7692#7.6	10.9	6.9
19.6566	27.7752	14.2318#7.6	10.9	6.9
19.8803	28.4329	14.7245#7.6	10.9	6.9
20.0245	29.1181	15.2539#7.6	10.9	6.9
20.4658	30.2763	16.0637#7.6	10.9	6.9
20.9028	31.4147	16.8583#7.6	10.9	6.9
21.3349	32.4748	17.5874#7.6	10.9	6.9
21.6595	33.256	18.1221#7.6	10.9	6.9
21.8777	33.761	18.4641#7.6	10.9	6.9
22.1114	34.2266	18.7655#7.6	10.9	6.9
22.3557	34.6678	19.0413#7.6	10.9	6.9
22.6114	35.0861	19.2924#7.6	10.9	4.6
22.9035	35.5517	19.5687#7.6	10.9	4.6
23.1951	36.0556	19.8783#7.6	10.9	4.6
23.4872	36.5996	20.2221#7.6	10.9	4.6
23.7723	37.1736	20.5929#7.6	10.9	4.6
23.7843	37.5037	20.8405#7.6	10.9	4.6
23.7997	37.7577	21.0263#7.6	10.9	6.9
23.8368	37.9823	21.185#7.6	10.9	6.9
23.826	38.1816	21.3388#7.6	10.9	6.9
23.7357	38.3298	21.4717#9.6	12.7	6.9
23.5525	38.3102	21.4887#9.6	12.7	6.9
23.3214	38.1648	21.4183#9.6	12.7	6.9
23.0682	37.9266	21.28#9.6	12.7	6.9
22.825	37.7595	21.2007#9.6	14.5	6.9
22.5966	37.7043	21.1939#9.6	14.5	6.9
22.3623	37.5962	21.1454#9.6	14.5	6.9
22.0362	37.3022	20.9789#9.6	14.5	6.9
21.6351	36.801	20.6779#9.6	14.5	6.9
21.3357	36.3154	20.3739#9.6	14.5	6.9
20.9594	35.699	19.9938#9.6	14.5	6.9
20.6987	35.2465	19.7152#11.5	14.5	6.9
20.4139	34.7177	19.3834#11.5	14.5	6.9
20.109	34.1433	19.0237#11.5	14.5	6.9
19.7917	33.7948	18.8331#11.5	14.5	6.9
19.5112	33.4268	18.6269#11.5	14.5	6.9
19.2664	33.0382	18.4046#11.5	14.5	6.9
19.0587	32.6694	18.1894#11.5	14.5	6.9
18.8613	32.3993	18.0394#11.5	16.3	6.9
18.6767	32.1154	17.8697#13.4	18.1	6.9
18.5867	31.8667	17.7066#13.4	18.1	6.9
18.6441	31.6494	17.5549#13.4	18.1	6.9
18.8491	31.4629	17.414#15.3	20.0	6.9
19.2342	31.5949	17.4798#15.3	20.0	6.9
19.6147	31.6399	17.5202#15.3	20.0	6.9
19.3598	31.3579	17.472#15.3	23.6	6.9
18.6206	30.9097	17.4029#15.3	23.6	6.9
17.9417	30.5638	17.396#15.3	25.4	6.9
17.6141	30.5273	17.5052#15.3	25.4	6.9
17.964	31.1346	17.8789#15.3	25.4	6.9
18.2361	31.6067	18.1694#15.3	27.2	6.9
18.3876	31.8696	18.3312#15.3	27.2	6.9
18.5485	32.1487	18.5029#17.3	27.2	6.9
18.7034	32.4176	18.6684#17.3	27.2	6.9
18.7919	32.5711	18.7628#17.3	27.2	6.9
18.867	32.7015	18.8431#15.3	25.4	9.3
18.9483	32.8426	18.9299#15.3	25.4	9.3
19.0286	32.9818	19.0156#13.4	20.0	6.9
19.0197	32.9664	19.0061#13.4	20.0	6.9
18.971	32.8819	18.9541#13.4	20.0	6.9
18.8106	32.6036	18.7829#11.5	18.1	6.9
18.7097	32.4285	18.6751#11.5	18.1	6.9
18.5963	32.2318	18.554#11.5	18.1	6.9
18.6093	32.2543	18.5679#11.5	14.5	6.9
18.6514	32.3274	18.6129#11.5	14.5	6.9
18.7968	32.5796	18.7681#11.5	14.5	6.9
18.9764	32.8913	18.9599#11.5	14.5	6.9
19.1909	33.2634	19.1889#11.5	14.5	6.9
19.3071	33.4651	19.313#9.6	14.5	6.9
19.4056	33.636	19.4181#9.6	14.5	6.9
19.5425	33.8736	19.5643#9.6	12.7	6.9
19.8106	34.3388	19.8506#9.6	12.7	6.9
20.3562	35.2856	20.4332#9.6	12.7	6.9
21.0793	36.5402	21.2052#9.6	12.7	6.9
21.7463	37.6976	21.9174#9.6	12.7	6.9
22.3512	38.7473	22.5633#9.6	12.7	6.9
22.8961	39.6927	23.1451#9.6	12.7	6.9
23.1609	40.1522	23.4278#9.6	12.7	6.9
23.3139	40.4177	23.5912#9.6	12.7	6.9
23.3556	40.4902	23.6358#9.6	12.7	6.9
23.2879	40.3726	23.5635#9.6	12.7	6.9
23.2978	40.3897	23.574#9.6	10.9	6.9
23.2885	40.3737	23.5642#9.6	10.9	6.9
23.2869	40.3709	23.5625#7.6	12.7	4.6
23.2929	40.3813	23.5689#7.6	12.7	4.6
23.1205	40.0822	23.3848#7.6	12.7	4.6
22.8085	39.5407	23.0516#7.6	10.9	4.6
22.6678	39.2966	22.9014#7.6	10.9	4.6
22.698	39.3491	22.9337#7.6	12.7	4.6
22.2242	38.5269	22.4278#7.6	12.7	4.6
21.3769	37.0566	21.523#7.6	12.7	4.6
20.6488	35.7933	20.7456#7.6	12.7	4.6
20.3214	35.2251	20.396#7.6	10.9	6.9
20.3934	35.35	20.4728#7.6	10.9	6.9
20.4903	35.5182	20.5764#7.6	10.9	6.9
20.6163	35.7368	20.7109#7.6	10.9	6.9
20.7718	36.0066	20.8769#7.6	10.9	6.9
20.9494	36.3148	21.0665#7.6	10.9	4.6
21.18	36.715	21.3128#7.6	10.9	4.6
21.4852	37.2445	21.6386#7.6	10.9	4.6
21.6985	37.6146	21.8663#7.6	10.9	4.6
21.8206	37.8266	21.9968#7.6	10.9	4.6
22.1306	38.3645	22.3278#7.6	9.0	4.6
22.4653	38.9452	22.6851#7.6	9.0	4.6
22.775	39.4826	23.0159#7.6	9.0	4.6
23.27	40.3415	23.5444#7.6	9.0	4.6
23.9519	41.5247	24.2725#7.6	9.0	4.6
24.618	42.6805	24.9837#7.6	10.9	4.6
25.1379	43.5828	25.5389#7.6	10.9	4.6
25.4037	44.044	25.8226#7.6	10.9	4.6
25.4161	44.0655	25.8359#7.6	9.0	4.6
25.2377	43.7559	25.6454#7.6	9.0	4.6
24.8409	43.0673	25.2217#7.6	9.0	4.6
24.4123	42.3237	24.7641#7.6	9.0	4.6
24.0266	41.6544	24.3523#7.6	9.0	4.6
23.4282	40.6161	23.7133#7.6	9.0	4.6
22.8424	39.4372	22.9477#7.6	9.0	4.6
22.6409	38.4953	22.2215#7.6	9.0	4.6
22.2669	37.1568	21.2272#7.6	9.0	4.6
21.9921	35.9223	20.28#7.6	9.0	4.6
21.8159	34.7878	19.3767#7.6	9.0	4.6
21.7375	33.7495	18.5145#7.6	9.0	4.6
21.7391	32.7424	17.6447#7.6	9.0	4.6
21.6937	31.781	16.8346#7.6	9.0	4.6
21.528	30.7859	16.0471#7.6	9.0	4.6
21.4066	30.0123	15.4318#7.6	10.9	4.6
21.329	29.4578	14.9866#7.6	10.9	4.6
21.2013	28.9452	14.5991#7.6	10.9	4.6
21.0509	28.4067	14.1991#7.6	10.9	4.6
20.8771	27.8407	13.7853#7.6	10.9	4.6
20.5425	27.0609	13.2561#7.6	9.0	4.6
20.1702	26.4136	12.8387#7.6	9.0	4.6
19.8678	25.9388	12.5379#7.6	9.0	4.6
19.7389	25.6496	12.3305#7.6	9.0	4.6
19.6594	25.429	12.1674#7.6	9.0	4.6
19.6257	25.1773	11.9675#7.6	9.0	4.6
19.5652	24.9212	11.7676#7.6	9.0	4.6
19.5386	24.6181	11.5242#7.6	9.0	4.6
19.5806	24.3288	11.2863#7.6	9.0	4.6
19.6099	24.1046	11.1042#7.6	10.9	4.6
19.5183	23.9026	10.9709#7.6	10.9	4.6
19.4121	23.7279	10.8658#7.6	10.9	4.6
19.3086	23.6126	10.8107#7.6	9.0	4.6
19.3064	23.7002	10.8872#7.6	9.0	4.6
19.2263	23.7258	10.9437#7.6	9.0	4.6
19.0681	23.6895	10.9804#7.6	9.0	4.6
18.9746	23.7606	11.0819#7.6	9.0	4.6
18.9814	23.9442	11.2374#7.6	9.0	4.6
18.8686	23.9533	11.2937#7.6	9.0	4.6
18.8116	24.0769	11.4248#7.6	9.0	4.6
18.6531	24.0796	11.4952#7.6	9.0	4.6
18.5209	24.1235	11.5899#7.6	9.0	4.6
18.4316	24.1935	11.6886#7.6	9.0	4.6
18.3241	24.2126	11.7513#7.6	9.0	4.6
18.2797	24.303	11.8484#7.6	9.0	4.6
18.3008	24.4531	11.9688#7.6	10.9	4.6
18.3873	24.6634	12.1131#7.6	10.9	4.6
18.5405	24.9108	12.2608#7.6	10.9	4.6
18.5307	24.8479	12.2107#7.6	10.9	4.6
18.6031	24.8886	12.2148#7.6	9.0	4.6
18.7579	25.0332	12.273#7.6	9.0	4.6
19.0132	25.2759	12.3728#7.6	9.0	4.6
19.3519	25.6807	12.5766#7.6	9.0	4.6
19.7415	26.0835	12.7568#7.6	9.0	4.6
20.065	26.3667	12.8623#7.6	9.0	4.6
20.4638	26.7097	12.987#7.6	9.0	4.6
20.8894	27.1656	13.1975#7.6	9.0	4.6
21.1309	27.4368	13.3081#7.6	10.9	4.6
21.1881	27.5935	13.3868#7.6	10.9	4.6
21.2156	27.6958	13.4429#7.6	10.9	4.6
21.1838	27.6873	13.4395#7.6	9.0	4.6
21.1445	27.6349	13.4093#7.6	9.0	4.6
20.9767	27.5425	13.3794#7.6	9.0	4.6
20.8258	27.5006	13.3832#7.6	9.0	4.6
20.6913	27.5091	13.4207#7.6	9.0	4.6
20.6184	27.6485	13.5438#7.6	9.0	4.6
20.759	28.128	13.8801#7.6	9.0	4.6
20.8325	28.6579	14.265#7.6	9.0	4.6
20.8391	29.2399	14.6997#7.6	9.0	4.6
20.7143	29.7373	15.0713#7.6	9.0	4.6
20.4649	29.9939	15.27#7.6	10.9	4.6
20.1369	30.0591	15.3336#7.6	10.9	4.6
19.729	29.9949	15.3005#7.6	10.9	4.6
19.276	29.8352	15.2071#9.6	10.9	4.6
19.1272	29.9821	15.2785#9.6	10.9	4.6
19.282	30.4359	15.5149#9.6	10.9	4.6
19.3986	30.9121	15.7773#9.6	10.9	4.6
19.8641	31.7984	16.2734#9.6	10.9	4.6
20.6014	33.0838	17.0015#9.6	10.9	4.6
21.2712	34.1764	17.5899#9.6	10.9	4.6
21.7741	35.124	18.0879#11.5	10.9	4.6
22.1115	35.93	18.497#11.5	10.9	4.6
22.3815	36.6688	18.8623#11.5	10.9	4.6
22.5393	37.2114	19.0869#15.3	12.7	4.6
22.3533	37.3069	19.0653#15.3	12.7	4.6
21.8231	36.9557	18.7977#15.3	14.5	4.6
21.209	36.5102	18.4695#15.3	14.5	4.6
20.6405	36.0134	18.1159#15.3	14.5	4.6
20.4832	36.0137	18.0678#15.3	14.5	4.6
20.3983	35.807	17.8785#15.3	14.5	4.6
20.3856	35.3924	17.5475#15.3	14.5	4.6
20.3928	34.8052	17.1105#17.3	16.3	4.6
20.6728	34.637	16.9498#17.3	16.3	4.6
21.0854	34.7768	17.0148#19.2	16.3	4.6
21.4993	34.7545	16.9828#19.2	16.3	4.6
21.9161	34.5699	16.8537#19.2	16.3	4.6
22.2358	34.1957	16.5966#19.2	16.3	4.6
22.5599	33.8554	16.3656#19.2	16.3	4.6
22.943	33.7294	16.2773#19.2	16.3	4.6
23.41	33.9768	16.4529#19.2	16.3	4.6
23.7184	34.2957	16.7162#19.2	16.3	4.6
23.6945	34.5426	16.9621#19.2	14.5	4.6
23.7528	35.2396	17.4781#19.2	14.5	4.6
23.5815	35.8579	17.9388#19.2	14.5	4.6
23.18	36.3998	18.3458#17.3	14.5	4.6
22.5545	36.6154	18.5254#17.3	14.5	4.6
21.906	36.5949	18.5529#17.3	14.5	4.6
21.2323	36.3384	18.4285#17.3	12.7	4.6
21.0052	36.6112	18.6079#17.3	12.7	4.6
20.5378	36.5	18.5512#17.3	12.7	4.6
19.9253	35.945	18.2223#15.3	12.7	4.6
19.1657	34.9444	17.6201#15.3	12.7	4.6
18.4644	34.0151	17.0829#15.3	12.7	4.6
17.8585	33.017	16.5097#15.3	12.7	4.6
17.4942	32.1732	16.0437#15.3	12.7	4.6
17.2608	31.5361	15.6935#15.3	12.7	4.6
17.1576	31.1034	15.4578#15.3	12.7	4.6
17.0342	30.4907	15.0578#15.3	12.7	4.6
16.9962	29.8442	14.6074#15.3	12.7	4.6
17.1317	29.1853	14.1361#15.3	12.7	4.6
17.2402	28.3515	13.5625#15.3	12.7	4.6
17.5096	27.7121	13.1176#15.3	12.7	4.6
17.7804	27.173	12.7371#15.3	12.7	4.6
18.1104	26.6534	12.3449#15.3	12.7	4.6
18.3772	26.0528	11.8932#15.3	12.7	4.6
18.5523	25.4481	11.4496#15.3	12.7	4.6
18.8806	25.2613	11.2736#15.3	12.7	4.6
19.039	24.8593	10.995#13.4	10.9	4.6
19.1761	24.2989	10.6218#13.4	10.9	4.6
19.1311	23.4824	10.1229#11.5	10.9	4.6
19.511	23.4187	10.1082#11.5	10.9	4.6
20.2167	24.0254	10.5165#11.5	10.9	4.6
21.0726	24.9957	11.1592#11.5	10.9	4.6
21.3331	25.6868	11.7308#11.5	10.9	4.6
20.9732	25.9835	12.1414#9.6	9.0	4.6
20.5612	26.1073	12.4253#9.6	9.0	4.6
20.0728	26.0398	12.5769#9.6	9.0	4.6
19.8284	26.4349	13.0228#9.6	9.0	4.6
19.3794	26.4921	13.265#9.6	9.0	4.6
18.7969	26.3709	13.4105#9.6	9.0	4.6
18.1443	26.0276	13.3947#9.6	9.0	4.6
17.7598	25.9772	13.5164#9.6	9.0	4.6
17.6422	26.2197	13.7761#9.6	9.0	4.6
17.3874	26.0771	13.7625#9.6	9.0	4.6
16.9399	25.5882	13.5329#9.6	9.0	4.6
16.6181	25.2148	13.3489#9.6	9.0	4.6
16.5764	25.3197	13.4574#9.6	9.0	4.6
16.5724	25.5358	13.6456#9.6	9.0	4.6
16.651	25.8697	13.8999#9.6	7.2	4.6
16.8125	26.3224	14.2211#7.6	7.2	4.6
16.8452	26.5406	14.3954#7.6	7.2	4.6
17.0342	26.9215	14.6428#7.6	7.2	4.6
17.3355	27.3615	14.8931#7.6	7.2	4.6
17.6476	27.8236	15.1578#7.6	7.2	4.6
18.0335	28.5187	15.5918#7.6	7.2	4.6
18.3568	28.9965	15.8653#7.6	7.2	4.6
18.7083	29.5546	16.1959#7.6	7.2	4.6
19.0087	30.0779	16.5183#7.6	7.2	4.6
19.2749	30.5353	16.7986#7.6	7.2	4.6
19.3944	30.7789	16.9576#7.6	7.2	4.6
19.5078	30.985	17.0867#7.6	7.2	4.6
19.4362	30.929	17.0691#7.6	7.2	4.6
19.3927	30.9396	17.097#7.6	7.2	4.6
19.3697	31.0382	17.192#7.6	7.2	4.6
19.1876	30.9652	17.2071#7.6	7.2	4.6
19.0587	31.0475	17.3336#7.6	7.2	4.6
19.0551	31.2874	17.5421#7.6	7.2	4.6
19.08	31.5612	17.7677#7.6	7.2	4.6
19.1666	31.813	17.9477#7.6	7.2	4.6
19.3152	32.0436	18.0829#7.6	7.2	4.6
19.6017	32.4456	18.3067#7.6	7.2	4.6
20.0164	33.0548	18.6543#7.6	7.2	4.6
20.6251	33.9613	19.175#7.6	7.2	4.6
21.1411	34.722	19.6097#7.6	7.2	4.6
21.5659	35.3394	19.9601#7.6	7.2	4.6
21.9337	36.0611	20.4248#7.6	7.2	4.6
21.9319	36.311	20.6412#7.6	7.2	4.6
21.8341	36.66	20.9844#7.6	7.2	4.6
21.7905	37.1908	21.4612#7.6	7.2	4.6
21.9112	37.9039	22.0246#7.6	7.2	4.6
22.6651	39.2919	22.8985#7.6	5.4	4.6
23.5203	40.7758	23.8116#7.6	5.4	4.6
24.7577	42.923	25.1329#7.6	5.4	4.6
25.7974	44.7271	26.243#7.6	5.4	4.6
26.5957	46.1124	27.0954#7.6	5.4	2.3
27.1554	47.0836	27.6931#7.6	5.4	2.3
27.6117	47.8752	28.1802#7.6	5.4	2.3
27.7977	48.1981	28.3789#7.6	5.4	2.3
27.6914	48.0136	28.2654#7.6	5.4	2.3
