7.502109527587890625e+00 0.000000000000000000e+00 1.215767145156860352e+00
8.294005393981933594e+00 0.000000000000000000e+00 2.545490503311157227e+00
8.905005455017089844e+00 0.000000000000000000e+00 2.737347841262817383e+00
8.108667373657226562e+00 0.000000000000000000e+00 6.321263313293457031e-01
6.986952781677246094e+00 0.000000000000000000e+00 3.612383127212524414e+00
7.146038055419921875e+00 0.000000000000000000e+00 1.586180925369262695e+00
7.332154273986816406e+00 0.000000000000000000e+00 7.709200382232666016e-01
7.035880088806152344e+00 0.000000000000000000e+00 5.247010231018066406e+00
5.576705932617187500e+00 0.000000000000000000e+00 3.525529146194458008e+00
5.576705932617187500e+00 0.000000000000000000e+00 3.525529146194458008e+00
7.132944107055664062e+00 0.000000000000000000e+00 5.698484420776367188e+00
4.948805332183837891e+00 0.000000000000000000e+00 2.967240095138549805e+00
5.412128925323486328e+00 0.000000000000000000e+00 5.795088768005371094e+00
5.118793487548828125e+00 0.000000000000000000e+00 4.533465385437011719e+00
7.675993919372558594e+00 0.000000000000000000e+00 1.141907691955566406e+00
3.305461406707763672e+00 0.000000000000000000e+00 3.510059356689453125e+00
8.364692687988281250e+00 0.000000000000000000e+00 1.008149814605712891e+01
8.364692687988281250e+00 0.000000000000000000e+00 1.008149814605712891e+01
4.330537796020507812e+00 0.000000000000000000e+00 3.695615053176879883e+00
4.898128032684326172e+00 0.000000000000000000e+00 5.916726112365722656e+00
6.251311302185058594e+00 0.000000000000000000e+00 4.487943172454833984e+00
6.251311302185058594e+00 0.000000000000000000e+00 4.487943172454833984e+00
8.711581230163574219e+00 0.000000000000000000e+00 1.204093837738037109e+01
8.711581230163574219e+00 0.000000000000000000e+00 1.204093837738037109e+01
6.338751792907714844e+00 0.000000000000000000e+00 3.620032548904418945e+00
4.710281848907470703e+00 0.000000000000000000e+00 4.098086357116699219e+00
4.710281848907470703e+00 0.000000000000000000e+00 4.098086357116699219e+00
3.919732570648193359e+00 0.000000000000000000e+00 3.177524328231811523e+00
7.915922164916992188e+00 0.000000000000000000e+00 8.586649894714355469e+00
7.834865570068359375e+00 0.000000000000000000e+00 6.281749725341796875e+00
8.224981307983398438e+00 0.000000000000000000e+00 8.359018325805664062e+00
9.554467201232910156e+00 0.000000000000000000e+00 2.599159479141235352e+00
7.775256156921386719e+00 0.000000000000000000e+00 4.352018356323242188e+00
7.428697586059570312e+00 0.000000000000000000e+00 6.224336624145507812e+00
8.503168106079101562e+00 0.000000000000000000e+00 6.231501579284667969e+00
7.368697643280029297e+00 0.000000000000000000e+00 8.769569396972656250e+00
7.368697643280029297e+00 0.000000000000000000e+00 8.769569396972656250e+00
1.030414009094238281e+01 0.000000000000000000e+00 7.822661399841308594e+00
1.171024036407470703e+01 0.000000000000000000e+00 7.196493148803710938e+00
1.214879131317138672e+01 0.000000000000000000e+00 9.369685173034667969e+00
6.936815261840820312e+00 0.000000000000000000e+00 7.041279792785644531e+00
1.328506374359130859e+01 0.000000000000000000e+00 8.775033950805664062e+00
1.184477424621582031e+01 0.000000000000000000e+00 5.581655502319335938e+00
1.194107151031494141e+01 0.000000000000000000e+00 5.405599594116210938e+00
1.194107151031494141e+01 0.000000000000000000e+00 5.405599594116210938e+00
1.008588790893554688e+01 0.000000000000000000e+00 1.150155353546142578e+01
7.296365737915039062e+00 0.000000000000000000e+00 6.614198684692382812e+00
1.485610866546630859e+01 0.000000000000000000e+00 1.553105258941650391e+01
1.540652751922607422e+01 0.000000000000000000e+00 1.825961494445800781e+01
1.565259647369384766e+01 0.000000000000000000e+00 1.069150066375732422e+01
1.565259647369384766e+01 0.000000000000000000e+00 1.069150066375732422e+01
1.960533142089843750e+01 0.000000000000000000e+00 1.391119289398193359e+01
1.987323379516601562e+01 0.000000000000000000e+00 1.566875553131103516e+01
1.986869812011718750e+01 0.000000000000000000e+00 1.490983104705810547e+01
1.976145935058593750e+01 0.000000000000000000e+00 1.964720535278320312e+01
1.693444252014160156e+01 0.000000000000000000e+00 1.187547588348388672e+01
1.693444252014160156e+01 0.000000000000000000e+00 1.187547588348388672e+01
1.466961288452148438e+01 0.000000000000000000e+00 1.060488510131835938e+01
1.248952293395996094e+01 0.000000000000000000e+00 1.289983463287353516e+01
7.293536663055419922e+00 0.000000000000000000e+00 5.443198204040527344e+00
7.293536663055419922e+00 0.000000000000000000e+00 5.443198204040527344e+00
8.584298133850097656e+00 0.000000000000000000e+00 9.404026031494140625e+00
1.012579536437988281e+01 0.000000000000000000e+00 9.789718627929687500e+00
1.997066116333007812e+01 0.000000000000000000e+00 1.546897220611572266e+01
2.705763435363769531e+01 0.000000000000000000e+00 2.727316665649414062e+01
7.429957866668701172e+00 0.000000000000000000e+00 4.292030334472656250e+00
7.429957866668701172e+00 0.000000000000000000e+00 4.292030334472656250e+00
1.059395408630371094e+01 0.000000000000000000e+00 4.519997596740722656e+00
1.714112663269042969e+01 0.000000000000000000e+00 1.177847099304199219e+01
1.124801349639892578e+01 0.000000000000000000e+00 1.367335033416748047e+01
1.124801349639892578e+01 0.000000000000000000e+00 1.367335033416748047e+01
2.532221984863281250e+01 0.000000000000000000e+00 2.666061401367187500e+01
2.465218162536621094e+01 0.000000000000000000e+00 2.072680664062500000e+01
1.328300094604492188e+01 0.000000000000000000e+00 8.351852416992187500e+00
2.292136383056640625e+01 0.000000000000000000e+00 3.685818862915039062e+01
3.126147842407226562e+01 0.000000000000000000e+00 2.683556365966796875e+01
2.348887252807617188e+01 0.000000000000000000e+00 2.313145065307617188e+01
1.825018501281738281e+01 0.000000000000000000e+00 1.810539054870605469e+01
1.825018501281738281e+01 0.000000000000000000e+00 1.810539054870605469e+01
2.746465110778808594e+01 0.000000000000000000e+00 3.533956527709960938e+01
3.564549255371093750e+01 0.000000000000000000e+00 3.266035842895507812e+01
1.093464183807373047e+01 0.000000000000000000e+00 2.468410682678222656e+01
7.002723693847656250e+00 0.000000000000000000e+00 8.470118522644042969e+00
2.961195373535156250e+01 0.000000000000000000e+00 8.052951812744140625e+01
2.961195373535156250e+01 0.000000000000000000e+00 8.052951812744140625e+01
2.000703811645507812e+01 0.000000000000000000e+00 2.350467491149902344e+01
1.115071773529052734e+01 0.000000000000000000e+00 1.448026943206787109e+01
1.585388851165771484e+01 0.000000000000000000e+00 1.118319797515869141e+01
1.935904884338378906e+01 0.000000000000000000e+00 2.294622993469238281e+01
2.427996444702148438e+01 0.000000000000000000e+00 5.446197891235351562e+01
1.689550590515136719e+01 0.000000000000000000e+00 2.979835510253906250e+01
1.853694152832031250e+01 0.000000000000000000e+00 3.031100273132324219e+01
2.756972122192382812e+01 0.000000000000000000e+00 1.884696578979492188e+01
2.241826629638671875e+01 0.000000000000000000e+00 5.028158187866210938e+01
9.327338218688964844e+00 0.000000000000000000e+00 3.361668777465820312e+01
1.706060028076171875e+01 0.000000000000000000e+00 2.700292015075683594e+01
4.754027366638183594e+00 0.000000000000000000e+00 6.170060157775878906e+00
1.937879180908203125e+01 0.000000000000000000e+00 2.349977111816406250e+01
1.006054210662841797e+01 0.000000000000000000e+00 1.485972118377685547e+01
1.261603355407714844e+01 0.000000000000000000e+00 2.019966697692871094e+01
1.008745384216308594e+01 0.000000000000000000e+00 1.491595649719238281e+01
1.543138599395751953e+01 0.000000000000000000e+00 9.930069923400878906e+00
1.290140056610107422e+01 0.000000000000000000e+00 1.548989391326904297e+01
1.290140056610107422e+01 0.000000000000000000e+00 1.548989391326904297e+01
8.336089134216308594e+00 0.000000000000000000e+00 8.959267616271972656e+00
1.736608886718750000e+01 0.000000000000000000e+00 1.520255565643310547e+01
1.844087600708007812e+01 0.000000000000000000e+00 1.433245372772216797e+01
2.002190589904785156e+01 0.000000000000000000e+00 3.304899597167968750e+01
2.010234832763671875e+01 0.000000000000000000e+00 4.217774963378906250e+01
2.119924163818359375e+01 0.000000000000000000e+00 1.975037765502929688e+01
2.256848526000976562e+01 0.000000000000000000e+00 1.899815559387207031e+01
1.119644260406494141e+01 0.000000000000000000e+00 6.487848281860351562e+00
1.370087814331054688e+01 0.000000000000000000e+00 9.481249809265136719e+00
1.370087814331054688e+01 0.000000000000000000e+00 9.481249809265136719e+00
1.455109119415283203e+01 0.000000000000000000e+00 1.046568012237548828e+01
8.681037902832031250e+00 0.000000000000000000e+00 4.971222877502441406e+00
1.686763000488281250e+01 0.000000000000000000e+00 1.278185939788818359e+01
1.686763000488281250e+01 0.000000000000000000e+00 1.278185939788818359e+01
1.113714122772216797e+01 0.000000000000000000e+00 3.731747865676879883e+00
3.510596513748168945e+00 0.000000000000000000e+00 1.172984361648559570e+00
3.442586183547973633e+00 0.000000000000000000e+00 5.073309898376464844e+00
7.858725547790527344e+00 0.000000000000000000e+00 4.367146492004394531e+00
1.359187221527099609e+01 0.000000000000000000e+00 1.103858852386474609e+01
8.792073249816894531e+00 0.000000000000000000e+00 6.418830871582031250e+00
8.792073249816894531e+00 0.000000000000000000e+00 6.418830871582031250e+00
9.597929954528808594e+00 0.000000000000000000e+00 6.635054588317871094e+00
1.607665443420410156e+01 0.000000000000000000e+00 1.241290664672851562e+01
2.308611488342285156e+01 0.000000000000000000e+00 1.855429649353027344e+01
2.122987365722656250e+01 0.000000000000000000e+00 1.570378971099853516e+01
1.952001571655273438e+01 0.000000000000000000e+00 1.293360042572021484e+01
1.628528022766113281e+01 0.000000000000000000e+00 9.067524909973144531e+00
1.196686458587646484e+01 0.000000000000000000e+00 7.385010719299316406e+00
6.643409729003906250e+00 0.000000000000000000e+00 3.698513507843017578e-01
1.016797733306884766e+01 0.000000000000000000e+00 4.995415687561035156e+00
9.214193344116210938e+00 0.000000000000000000e+00 8.342499732971191406e+00
9.601580619812011719e+00 0.000000000000000000e+00 8.189124107360839844e+00
7.175196170806884766e+00 0.000000000000000000e+00 6.306050300598144531e+00
2.334970664978027344e+01 0.000000000000000000e+00 1.678964233398437500e+01
2.438669395446777344e+01 0.000000000000000000e+00 1.650869369506835938e+01
9.574582099914550781e+00 0.000000000000000000e+00 5.377755165100097656e+00
9.574582099914550781e+00 0.000000000000000000e+00 5.377755165100097656e+00
1.454668331146240234e+01 0.000000000000000000e+00 1.719739913940429688e+01
9.470435142517089844e+00 0.000000000000000000e+00 5.474194526672363281e+00
3.280671596527099609e+00 0.000000000000000000e+00 9.242624282836914062e+00
1.363727807998657227e+00 0.000000000000000000e+00 1.453835582733154297e+01
1.024537563323974609e+01 0.000000000000000000e+00 1.079209232330322266e+01
1.024537563323974609e+01 0.000000000000000000e+00 1.079209232330322266e+01
0.000000000000000000e+00 0.000000000000000000e+00 1.012633800506591797e+01
5.513168334960937500e+00 0.000000000000000000e+00 3.884809255599975586e+00
1.178827762603759766e+01 0.000000000000000000e+00 7.879939079284667969e+00
1.178827762603759766e+01 0.000000000000000000e+00 7.879939079284667969e+00
2.201429367065429688e+01 0.000000000000000000e+00 3.378461074829101562e+01
7.161325454711914062e+00 0.000000000000000000e+00 3.768424749374389648e+00
1.124885082244873047e+01 0.000000000000000000e+00 6.525126457214355469e+00
8.485137939453125000e+00 0.000000000000000000e+00 1.188844013214111328e+01
7.844761848449707031e+00 0.000000000000000000e+00 7.294509887695312500e+00
8.882395744323730469e+00 0.000000000000000000e+00 8.532263755798339844e+00
2.167849731445312500e+01 0.000000000000000000e+00 2.244994354248046875e+01
2.167849731445312500e+01 0.000000000000000000e+00 2.244994354248046875e+01
1.596322154998779297e+01 0.000000000000000000e+00 1.814975738525390625e+01
2.119559097290039062e+01 0.000000000000000000e+00 3.925575637817382812e+01
2.119559097290039062e+01 0.000000000000000000e+00 3.925575637817382812e+01
2.205684661865234375e+01 0.000000000000000000e+00 3.307884216308593750e+01
1.385755443572998047e+01 0.000000000000000000e+00 2.657598495483398438e+01
1.395831108093261719e+01 0.000000000000000000e+00 4.499737167358398438e+01
1.395831108093261719e+01 0.000000000000000000e+00 4.499737167358398438e+01
3.354006958007812500e+01 0.000000000000000000e+00 4.314721298217773438e+01
1.458188152313232422e+01 0.000000000000000000e+00 3.069502830505371094e+01
0.000000000000000000e+00 0.000000000000000000e+00 2.299537658691406250e+01
0.000000000000000000e+00 0.000000000000000000e+00 2.299537658691406250e+01
8.832845687866210938e+00 0.000000000000000000e+00 1.426519775390625000e+01
7.188123226165771484e+00 0.000000000000000000e+00 1.205286026000976562e+01
6.517506599426269531e+00 0.000000000000000000e+00 7.456210136413574219e+00
1.172677707672119141e+01 0.000000000000000000e+00 1.436546134948730469e+01
1.172677707672119141e+01 0.000000000000000000e+00 1.436546134948730469e+01
1.035506057739257812e+01 0.000000000000000000e+00 1.547514629364013672e+01
1.035506057739257812e+01 0.000000000000000000e+00 1.547514629364013672e+01
1.265560245513916016e+01 0.000000000000000000e+00 6.062142372131347656e+00
1.759004020690917969e+01 0.000000000000000000e+00 2.205498504638671875e+01
1.693854331970214844e+01 0.000000000000000000e+00 1.553694248199462891e+01
1.693854331970214844e+01 0.000000000000000000e+00 1.553694248199462891e+01
1.019373512268066406e+01 0.000000000000000000e+00 4.633347034454345703e+00
6.104356765747070312e+00 0.000000000000000000e+00 6.592893600463867188e+00
6.104356765747070312e+00 0.000000000000000000e+00 6.592893600463867188e+00
1.855953788757324219e+01 0.000000000000000000e+00 2.875071334838867188e+01
1.103984928131103516e+01 0.000000000000000000e+00 1.383278369903564453e+01
1.103984928131103516e+01 0.000000000000000000e+00 1.383278369903564453e+01
9.215229988098144531e+00 0.000000000000000000e+00 1.535946655273437500e+01
1.035154628753662109e+01 0.000000000000000000e+00 8.712690353393554688e+00
1.035154628753662109e+01 0.000000000000000000e+00 8.712690353393554688e+00
1.637401199340820312e+01 0.000000000000000000e+00 1.286152744293212891e+01
1.411287975311279297e+01 0.000000000000000000e+00 1.126843070983886719e+01
1.341488361358642578e+01 0.000000000000000000e+00 1.035161304473876953e+01
1.960368919372558594e+01 0.000000000000000000e+00 2.108486557006835938e+01
1.960368919372558594e+01 0.000000000000000000e+00 2.108486557006835938e+01
9.493814468383789062e+00 0.000000000000000000e+00 1.367549037933349609e+01
1.080642890930175781e+01 0.000000000000000000e+00 1.112672328948974609e+01
9.346579551696777344e+00 0.000000000000000000e+00 4.159168243408203125e+00
9.346579551696777344e+00 0.000000000000000000e+00 4.159168243408203125e+00
1.534081172943115234e+01 0.000000000000000000e+00 1.436731243133544922e+01
1.534081172943115234e+01 0.000000000000000000e+00 1.436731243133544922e+01
7.817140579223632812e+00 0.000000000000000000e+00 5.435476303100585938e+00
7.016070842742919922e+00 0.000000000000000000e+00 8.498007774353027344e+00
1.356079769134521484e+01 0.000000000000000000e+00 8.204638481140136719e+00
1.356079769134521484e+01 0.000000000000000000e+00 8.204638481140136719e+00
1.281948661804199219e+01 0.000000000000000000e+00 8.528445243835449219e+00
1.251303482055664062e+01 0.000000000000000000e+00 9.465088844299316406e+00
1.540575027465820312e+01 0.000000000000000000e+00 9.911236763000488281e+00
1.540575027465820312e+01 0.000000000000000000e+00 9.911236763000488281e+00
1.644446563720703125e+01 0.000000000000000000e+00 1.094835948944091797e+01
1.644446563720703125e+01 0.000000000000000000e+00 1.094835948944091797e+01
9.898443222045898438e+00 0.000000000000000000e+00 5.258955955505371094e+00
9.898443222045898438e+00 0.000000000000000000e+00 5.258955955505371094e+00
8.564157485961914062e+00 0.000000000000000000e+00 3.216148614883422852e+00
9.087780952453613281e+00 0.000000000000000000e+00 4.488801002502441406e+00
1.266170597076416016e+01 0.000000000000000000e+00 7.895445823669433594e+00
1.266170597076416016e+01 0.000000000000000000e+00 7.895445823669433594e+00
1.497224617004394531e+01 0.000000000000000000e+00 9.592782974243164062e+00
1.239090251922607422e+01 0.000000000000000000e+00 7.696512222290039062e+00
1.239090251922607422e+01 0.000000000000000000e+00 7.696512222290039062e+00
4.993154525756835938e+00 0.000000000000000000e+00 2.262080430984497070e+00
4.219781875610351562e+00 0.000000000000000000e+00 2.307651519775390625e+00
8.300254821777343750e+00 0.000000000000000000e+00 5.895298004150390625e+00
1.171887302398681641e+01 0.000000000000000000e+00 1.170971584320068359e+01
1.171887302398681641e+01 0.000000000000000000e+00 1.170971584320068359e+01
8.611368179321289062e+00 0.000000000000000000e+00 7.166578292846679688e+00
1.267555141448974609e+01 0.000000000000000000e+00 1.510594081878662109e+01
1.267555141448974609e+01 0.000000000000000000e+00 1.510594081878662109e+01
1.667938995361328125e+01 0.000000000000000000e+00 1.812018203735351562e+01
2.378316307067871094e+01 0.000000000000000000e+00 2.159158134460449219e+01
2.378316307067871094e+01 0.000000000000000000e+00 2.159158134460449219e+01
6.667030811309814453e+00 0.000000000000000000e+00 8.487899780273437500e+00
8.199999809265136719e+00 0.000000000000000000e+00 5.114819526672363281e+00
7.895911216735839844e+00 0.000000000000000000e+00 4.770366191864013672e+00
7.895911216735839844e+00 0.000000000000000000e+00 4.770366191864013672e+00
9.780085563659667969e+00 0.000000000000000000e+00 5.400057792663574219e+00
1.231356334686279297e+01 0.000000000000000000e+00 6.784750938415527344e+00
1.198622989654541016e+01 0.000000000000000000e+00 6.462331771850585938e+00
2.988470458984375000e+01 0.000000000000000000e+00 2.568589973449707031e+01
1.133154773712158203e+01 0.000000000000000000e+00 2.005208206176757812e+01
2.012182998657226562e+01 0.000000000000000000e+00 1.580979728698730469e+01
1.226977252960205078e+01 0.000000000000000000e+00 7.111343383789062500e+00
1.347030544281005859e+01 0.000000000000000000e+00 1.189560604095458984e+01
1.159387302398681641e+01 0.000000000000000000e+00 7.339712142944335938e+00
1.159387302398681641e+01 0.000000000000000000e+00 7.339712142944335938e+00
1.798693275451660156e+01 0.000000000000000000e+00 1.559303379058837891e+01
1.798693275451660156e+01 0.000000000000000000e+00 1.559303379058837891e+01
2.188087272644042969e+01 0.000000000000000000e+00 3.055379486083984375e+01
1.699307250976562500e+01 0.000000000000000000e+00 2.508227539062500000e+01
1.880211639404296875e+01 0.000000000000000000e+00 2.111229515075683594e+01
2.550251960754394531e+01 0.000000000000000000e+00 4.742077255249023438e+01
2.521131896972656250e+01 0.000000000000000000e+00 3.025677490234375000e+01
1.395115184783935547e+01 0.000000000000000000e+00 1.982647705078125000e+01
1.395115184783935547e+01 0.000000000000000000e+00 1.982647705078125000e+01
9.683901786804199219e+00 0.000000000000000000e+00 9.362304687500000000e+00
7.101189613342285156e+00 0.000000000000000000e+00 7.486498832702636719e+00
1.498028469085693359e+01 0.000000000000000000e+00 1.465915966033935547e+01
9.260630607604980469e+00 0.000000000000000000e+00 4.538800239562988281e+00
9.260630607604980469e+00 0.000000000000000000e+00 4.538800239562988281e+00
8.604635238647460938e+00 0.000000000000000000e+00 8.134147644042968750e+00
1.345991230010986328e+01 0.000000000000000000e+00 8.481813430786132812e+00
8.968314170837402344e+00 0.000000000000000000e+00 1.308916187286376953e+01
1.175082015991210938e+01 0.000000000000000000e+00 7.226303100585937500e+00
1.368628501892089844e+01 0.000000000000000000e+00 8.648107528686523438e+00
2.204842376708984375e+01 0.000000000000000000e+00 2.753656387329101562e+01
6.246664047241210938e+00 0.000000000000000000e+00 4.811741828918457031e+00
1.303853702545166016e+01 0.000000000000000000e+00 2.108252716064453125e+01
1.232895469665527344e+01 0.000000000000000000e+00 1.959978866577148438e+01
2.372193145751953125e+01 0.000000000000000000e+00 2.867213821411132812e+01
2.372193145751953125e+01 0.000000000000000000e+00 2.867213821411132812e+01
1.882248115539550781e+01 0.000000000000000000e+00 1.399645614624023438e+01
1.117289829254150391e+01 0.000000000000000000e+00 3.959218025207519531e+00
8.091592788696289062e+00 0.000000000000000000e+00 1.125636100769042969e+01
8.091592788696289062e+00 0.000000000000000000e+00 1.125636100769042969e+01
1.322292900085449219e+01 0.000000000000000000e+00 1.461907291412353516e+01
9.301465034484863281e+00 0.000000000000000000e+00 7.711318969726562500e+00
6.016088485717773438e+00 0.000000000000000000e+00 6.408449172973632812e+00
1.181042003631591797e+01 0.000000000000000000e+00 8.737728118896484375e+00
7.729125976562500000e+00 0.000000000000000000e+00 6.165868759155273438e+00
5.984486579895019531e+00 0.000000000000000000e+00 3.418949365615844727e+00
6.469887733459472656e+00 0.000000000000000000e+00 4.463566303253173828e+00
6.469887733459472656e+00 0.000000000000000000e+00 4.463566303253173828e+00
1.025517559051513672e+01 0.000000000000000000e+00 5.171494483947753906e+00
1.599127864837646484e+01 0.000000000000000000e+00 1.220112133026123047e+01
1.361785507202148438e+01 0.000000000000000000e+00 8.015026092529296875e+00
1.361785507202148438e+01 0.000000000000000000e+00 8.015026092529296875e+00
1.564128971099853516e+01 0.000000000000000000e+00 1.029700851440429688e+01
1.564128971099853516e+01 0.000000000000000000e+00 1.029700851440429688e+01
4.962718486785888672e+00 0.000000000000000000e+00 6.855720520019531250e+00
8.389981269836425781e+00 0.000000000000000000e+00 6.515872001647949219e+00
1.499141311645507812e+01 0.000000000000000000e+00 1.130116367340087891e+01
1.647247505187988281e+01 0.000000000000000000e+00 1.069485950469970703e+01
1.647247505187988281e+01 0.000000000000000000e+00 1.069485950469970703e+01
1.056134319305419922e+01 0.000000000000000000e+00 7.520153999328613281e+00
1.942586517333984375e+01 0.000000000000000000e+00 2.437884140014648438e+01
1.465241241455078125e+01 0.000000000000000000e+00 7.403512001037597656e+00
1.465241241455078125e+01 0.000000000000000000e+00 7.403512001037597656e+00
2.263919830322265625e+01 0.000000000000000000e+00 2.692287826538085938e+01
2.263919830322265625e+01 0.000000000000000000e+00 2.692287826538085938e+01
2.119527053833007812e+01 0.000000000000000000e+00 1.386964035034179688e+01
3.651306915283203125e+01 0.000000000000000000e+00 2.541680526733398438e+01
1.573279857635498047e+01 0.000000000000000000e+00 2.671244430541992188e+01
1.555056667327880859e+01 0.000000000000000000e+00 1.448253917694091797e+01
1.475256252288818359e+01 0.000000000000000000e+00 2.002308273315429688e+01
1.475256252288818359e+01 0.000000000000000000e+00 2.002308273315429688e+01
1.143873596191406250e+01 0.000000000000000000e+00 1.587649345397949219e+01
1.036657047271728516e+01 0.000000000000000000e+00 1.982914352416992188e+01
1.036657047271728516e+01 0.000000000000000000e+00 1.982914352416992188e+01
2.272075271606445312e+01 0.000000000000000000e+00 3.832302856445312500e+01
2.022672271728515625e+01 0.000000000000000000e+00 4.743093490600585938e+01
2.849315452575683594e+01 0.000000000000000000e+00 3.168158340454101562e+01
1.393894672393798828e+01 0.000000000000000000e+00 1.411116027832031250e+01
3.694020080566406250e+01 0.000000000000000000e+00 9.079738616943359375e+01
2.664991378784179688e+01 0.000000000000000000e+00 6.075044631958007812e+01
1.355776405334472656e+01 0.000000000000000000e+00 1.807390785217285156e+01
1.355776405334472656e+01 0.000000000000000000e+00 1.807390785217285156e+01
1.126414299011230469e+00 0.000000000000000000e+00 1.194861984252929688e+01
1.889370727539062500e+01 0.000000000000000000e+00 3.932104110717773438e+01
1.640148162841796875e+01 0.000000000000000000e+00 3.049676322937011719e+01
1.843140792846679688e+01 0.000000000000000000e+00 2.677323150634765625e+01
2.897191619873046875e+01 0.000000000000000000e+00 5.437684631347656250e+01
2.532156372070312500e+01 0.000000000000000000e+00 4.483737945556640625e+01
2.514815139770507812e+01 0.000000000000000000e+00 4.075218582153320312e+01
1.669343566894531250e+01 0.000000000000000000e+00 2.501179122924804688e+01
1.669343566894531250e+01 0.000000000000000000e+00 2.501179122924804688e+01
3.264201736450195312e+01 0.000000000000000000e+00 6.204587173461914062e+01
1.501497840881347656e+01 0.000000000000000000e+00 2.496803283691406250e+01
1.896696853637695312e+01 0.000000000000000000e+00 4.875983810424804688e+01
1.896696853637695312e+01 0.000000000000000000e+00 4.875983810424804688e+01
2.821768951416015625e+01 0.000000000000000000e+00 2.952821731567382812e+01
2.821768951416015625e+01 0.000000000000000000e+00 2.952821731567382812e+01
1.059387874603271484e+01 0.000000000000000000e+00 1.313726520538330078e+01
8.181241989135742188e+00 0.000000000000000000e+00 1.389198493957519531e+01
1.305306243896484375e+01 0.000000000000000000e+00 1.711662673950195312e+01
1.075401210784912109e+01 0.000000000000000000e+00 2.877251243591308594e+01
1.075401210784912109e+01 0.000000000000000000e+00 2.877251243591308594e+01
1.494358730316162109e+01 0.000000000000000000e+00 1.200050258636474609e+01
7.665620803833007812e+00 0.000000000000000000e+00 7.469758033752441406e+00
7.665620803833007812e+00 0.000000000000000000e+00 7.469758033752441406e+00
2.408419227600097656e+01 0.000000000000000000e+00 3.264517211914062500e+01
1.213440990447998047e+01 0.000000000000000000e+00 1.089741039276123047e+01
1.213440990447998047e+01 0.000000000000000000e+00 1.089741039276123047e+01
1.473906993865966797e+01 0.000000000000000000e+00 8.081426620483398438e+00
1.304242610931396484e+01 0.000000000000000000e+00 9.198855400085449219e+00
1.304242610931396484e+01 0.000000000000000000e+00 9.198855400085449219e+00
2.120349502563476562e+01 0.000000000000000000e+00 1.438895797729492188e+01
2.000492477416992188e+01 0.000000000000000000e+00 1.366372966766357422e+01
6.899700164794921875e+00 0.000000000000000000e+00 3.662640571594238281e+00
5.966691017150878906e+00 0.000000000000000000e+00 1.186680126190185547e+01
7.739426612854003906e+00 0.000000000000000000e+00 1.000952911376953125e+01
5.917090415954589844e+00 0.000000000000000000e+00 6.201583862304687500e+00
8.598580360412597656e+00 0.000000000000000000e+00 3.959454774856567383e+00
8.291192054748535156e+00 0.000000000000000000e+00 5.317838668823242188e+00
1.254550266265869141e+01 0.000000000000000000e+00 1.310347270965576172e+01
1.291832256317138672e+01 0.000000000000000000e+00 7.810355186462402344e+00
1.369257164001464844e+01 0.000000000000000000e+00 6.419236183166503906e+00
1.189138698577880859e+01 0.000000000000000000e+00 9.661019325256347656e+00
2.167318916320800781e+01 0.000000000000000000e+00 1.734003829956054688e+01
1.137555503845214844e+01 0.000000000000000000e+00 6.978351593017578125e+00
1.137555503845214844e+01 0.000000000000000000e+00 6.978351593017578125e+00
9.387956619262695312e+00 0.000000000000000000e+00 6.635749816894531250e+00
6.683093070983886719e+00 0.000000000000000000e+00 4.156569480895996094e+00
7.132919788360595703e+00 0.000000000000000000e+00 3.922919988632202148e+00
1.175937366485595703e+01 0.000000000000000000e+00 7.232586860656738281e+00
6.052878379821777344e+00 0.000000000000000000e+00 5.540192604064941406e+00
9.818778038024902344e+00 0.000000000000000000e+00 1.127676677703857422e+01
1.514061260223388672e+01 0.000000000000000000e+00 1.023233509063720703e+01
1.421060848236083984e+01 0.000000000000000000e+00 1.213441753387451172e+01
1.063804912567138672e+01 0.000000000000000000e+00 6.509181022644042969e+00
9.012997627258300781e+00 0.000000000000000000e+00 4.821978569030761719e+00
1.571642971038818359e+01 0.000000000000000000e+00 1.316176128387451172e+01
1.571642971038818359e+01 0.000000000000000000e+00 1.316176128387451172e+01
8.174182891845703125e+00 0.000000000000000000e+00 5.471132278442382812e+00
1.295026493072509766e+01 0.000000000000000000e+00 6.402929306030273438e+00
7.351903438568115234e+00 0.000000000000000000e+00 4.023612022399902344e+00
7.648376464843750000e+00 0.000000000000000000e+00 4.638616085052490234e+00
6.538630008697509766e+00 0.000000000000000000e+00 3.397396326065063477e+00
6.538630008697509766e+00 0.000000000000000000e+00 3.397396326065063477e+00
7.938639640808105469e+00 0.000000000000000000e+00 2.103962421417236328e+00
1.103420352935791016e+01 0.000000000000000000e+00 7.741798400878906250e+00
1.579997158050537109e+01 0.000000000000000000e+00 1.160388088226318359e+01
4.311645507812500000e+00 0.000000000000000000e+00 3.567851543426513672e+00
7.928917884826660156e+00 0.000000000000000000e+00 3.189749002456665039e+00
9.534747123718261719e+00 0.000000000000000000e+00 6.212676048278808594e+00
1.493081569671630859e+01 0.000000000000000000e+00 1.086265277862548828e+01
1.493081569671630859e+01 0.000000000000000000e+00 1.086265277862548828e+01
6.202895164489746094e+00 0.000000000000000000e+00 5.316985130310058594e+00
1.159964466094970703e+01 0.000000000000000000e+00 1.162978172302246094e+01
1.133243942260742188e+01 0.000000000000000000e+00 1.138127040863037109e+01
1.228633785247802734e+01 0.000000000000000000e+00 1.178131008148193359e+01
1.357322597503662109e+01 0.000000000000000000e+00 1.076522350311279297e+01
1.369243526458740234e+01 0.000000000000000000e+00 1.106074810028076172e+01
8.347815513610839844e+00 0.000000000000000000e+00 6.652930259704589844e+00
8.405858039855957031e+00 0.000000000000000000e+00 2.395886659622192383e+00
1.102398967742919922e+01 0.000000000000000000e+00 1.683107757568359375e+01
1.102398967742919922e+01 0.000000000000000000e+00 1.683107757568359375e+01
9.501916885375976562e+00 0.000000000000000000e+00 3.148300647735595703e-01
1.163549327850341797e+01 0.000000000000000000e+00 1.185493373870849609e+01
1.937263107299804688e+01 0.000000000000000000e+00 2.179941940307617188e+01
1.571073722839355469e+01 0.000000000000000000e+00 2.106164741516113281e+01
6.047186851501464844e+00 0.000000000000000000e+00 6.060631942749023438e+01
1.387903118133544922e+01 0.000000000000000000e+00 1.281976795196533203e+01
2.072982215881347656e+01 0.000000000000000000e+00 3.464321899414062500e+01
2.558872222900390625e+01 0.000000000000000000e+00 4.730733871459960938e+01
1.449786853790283203e+01 0.000000000000000000e+00 2.413194084167480469e+01
8.570620536804199219e+00 0.000000000000000000e+00 3.180730056762695312e+01
8.570620536804199219e+00 0.000000000000000000e+00 3.180730056762695312e+01
1.216895961761474609e+01 0.000000000000000000e+00 2.543464660644531250e+01
6.079211235046386719e+00 0.000000000000000000e+00 2.037318038940429688e+01
6.946623325347900391e-01 0.000000000000000000e+00 2.703401947021484375e+01
1.805995702743530273e+00 0.000000000000000000e+00 1.438993644714355469e+01
1.730462265014648438e+01 0.000000000000000000e+00 2.999691772460937500e+01
1.974815750122070312e+01 0.000000000000000000e+00 2.783304214477539062e+01
1.156782054901123047e+01 0.000000000000000000e+00 1.800932502746582031e+01
3.008548736572265625e+01 0.000000000000000000e+00 2.964996719360351562e+01
3.436063385009765625e+01 0.000000000000000000e+00 5.196247482299804688e+01
1.831750106811523438e+01 0.000000000000000000e+00 4.090761947631835938e+01
2.158495521545410156e+01 0.000000000000000000e+00 3.894108200073242188e+01
2.158495521545410156e+01 0.000000000000000000e+00 3.894108200073242188e+01
1.601470184326171875e+01 0.000000000000000000e+00 2.730150794982910156e+01
1.604345703125000000e+01 0.000000000000000000e+00 2.736159515380859375e+01
1.604345703125000000e+01 0.000000000000000000e+00 2.736159515380859375e+01
1.524783897399902344e+01 0.000000000000000000e+00 2.569907569885253906e+01
1.356871795654296875e+01 0.000000000000000000e+00 1.719960975646972656e+01
1.292790603637695312e+01 0.000000000000000000e+00 1.640633964538574219e+01
1.737406730651855469e+01 0.000000000000000000e+00 3.014203262329101562e+01
1.059768295288085938e+01 0.000000000000000000e+00 6.892972946166992188e+00
1.438416290283203125e+01 0.000000000000000000e+00 1.429684925079345703e+01
1.467040920257568359e+01 0.000000000000000000e+00 8.999537467956542969e+00
1.426029491424560547e+01 0.000000000000000000e+00 2.038191223144531250e+01
1.212454032897949219e+01 0.000000000000000000e+00 9.396609306335449219e+00
1.140304183959960938e+01 0.000000000000000000e+00 8.621097564697265625e+00
1.630753707885742188e+01 0.000000000000000000e+00 1.168057632446289062e+01
1.032213497161865234e+01 0.000000000000000000e+00 8.812043190002441406e+00
1.804308128356933594e+01 0.000000000000000000e+00 1.184863662719726562e+01
1.199307918548583984e+01 0.000000000000000000e+00 8.165722846984863281e+00
1.434161472320556641e+01 0.000000000000000000e+00 1.793075180053710938e+01
7.574585914611816406e+00 0.000000000000000000e+00 1.172369289398193359e+01
1.281797695159912109e+01 0.000000000000000000e+00 1.570696544647216797e+01
1.281797695159912109e+01 0.000000000000000000e+00 1.570696544647216797e+01
9.204414367675781250e+00 0.000000000000000000e+00 4.678615570068359375e+00
1.243375968933105469e+01 0.000000000000000000e+00 5.332839012145996094e+00
1.823883628845214844e+01 0.000000000000000000e+00 1.230842494964599609e+01
1.549245166778564453e+01 0.000000000000000000e+00 9.532640457153320312e+00
1.784580421447753906e+01 0.000000000000000000e+00 1.170371627807617188e+01
2.436443710327148438e+01 0.000000000000000000e+00 1.649234390258789062e+01
9.078734397888183594e+00 0.000000000000000000e+00 2.760262727737426758e+00
7.139231681823730469e+00 0.000000000000000000e+00 2.463176012039184570e+00
8.728338241577148438e+00 0.000000000000000000e+00 0.000000000000000000e+00
1.371341228485107422e+01 0.000000000000000000e+00 8.240141868591308594e+00
1.753158569335937500e+01 0.000000000000000000e+00 1.307641506195068359e+01
1.753158569335937500e+01 0.000000000000000000e+00 1.307641506195068359e+01
2.066124153137207031e+01 0.000000000000000000e+00 1.377195358276367188e+01
1.343105602264404297e+01 0.000000000000000000e+00 1.185006809234619141e+01
1.314896297454833984e+01 0.000000000000000000e+00 1.421977519989013672e+01
1.158461093902587891e+01 0.000000000000000000e+00 7.932694435119628906e+00
2.388088226318359375e+01 0.000000000000000000e+00 2.468355941772460938e+01
1.474979686737060547e+01 0.000000000000000000e+00 1.129398345947265625e+01
1.849503898620605469e+01 0.000000000000000000e+00 1.318467426300048828e+01
2.270152282714843750e+01 0.000000000000000000e+00 1.527075672149658203e+01
1.167731380462646484e+01 0.000000000000000000e+00 8.499537467956542969e+00
1.167731380462646484e+01 0.000000000000000000e+00 8.499537467956542969e+00
1.627469062805175781e+01 0.000000000000000000e+00 1.054956531524658203e+01
1.627469062805175781e+01 0.000000000000000000e+00 1.054956531524658203e+01
1.767429542541503906e+01 0.000000000000000000e+00 1.073318767547607422e+01
2.048273849487304688e+01 0.000000000000000000e+00 1.899438095092773438e+01
1.936081504821777344e+01 0.000000000000000000e+00 1.392668819427490234e+01
1.390288448333740234e+01 0.000000000000000000e+00 1.046894359588623047e+01
1.482902812957763672e+01 0.000000000000000000e+00 1.191459941864013672e+01
7.622328758239746094e+00 0.000000000000000000e+00 1.044293975830078125e+01
1.861265563964843750e+01 0.000000000000000000e+00 3.273017883300781250e+01
7.670625686645507812e+00 0.000000000000000000e+00 8.808351516723632812e+00
1.035422325134277344e+01 0.000000000000000000e+00 2.168638038635253906e+01
1.156815624237060547e+01 0.000000000000000000e+00 2.123863410949707031e+01
0.000000000000000000e+00 0.000000000000000000e+00 1.895551681518554688e+01
0.000000000000000000e+00 0.000000000000000000e+00 1.895551681518554688e+01
8.766646385192871094e+00 0.000000000000000000e+00 1.215600299835205078e+01
1.745917510986328125e+01 0.000000000000000000e+00 2.183864974975585938e+01
2.149692535400390625e+01 0.000000000000000000e+00 3.113183212280273438e+01
2.149692535400390625e+01 0.000000000000000000e+00 3.113183212280273438e+01
1.268452548980712891e+01 0.000000000000000000e+00 7.912209510803222656e+00
3.387686157226562500e+01 0.000000000000000000e+00 6.462619781494140625e+01
1.505619621276855469e+01 0.000000000000000000e+00 5.385076522827148438e+01
1.911954879760742188e+01 0.000000000000000000e+00 7.661408233642578125e+01
9.128569602966308594e+00 0.000000000000000000e+00 8.314560890197753906e+00
1.464758205413818359e+01 0.000000000000000000e+00 2.159442520141601562e+01
1.464758205413818359e+01 0.000000000000000000e+00 2.159442520141601562e+01
1.345250892639160156e+01 0.000000000000000000e+00 3.228265380859375000e+01
1.147428417205810547e+01 0.000000000000000000e+00 2.682462310791015625e+01
3.660383987426757812e+01 0.000000000000000000e+00 5.221656417846679688e+01
1.375444698333740234e+01 0.000000000000000000e+00 8.482722282409667969e+00
1.375444698333740234e+01 0.000000000000000000e+00 8.482722282409667969e+00
1.342947292327880859e+01 0.000000000000000000e+00 2.849854278564453125e+01
1.595184135437011719e+01 0.000000000000000000e+00 1.384097290039062500e+01
1.896720886230468750e+01 0.000000000000000000e+00 2.893264198303222656e+01
1.896720886230468750e+01 0.000000000000000000e+00 2.893264198303222656e+01
1.393289852142333984e+01 0.000000000000000000e+00 1.607346725463867188e+01
1.582928848266601562e+01 0.000000000000000000e+00 1.337047481536865234e+01
1.556397151947021484e+01 0.000000000000000000e+00 1.592412090301513672e+01
1.371455287933349609e+01 0.000000000000000000e+00 1.982386398315429688e+01
1.413924312591552734e+01 0.000000000000000000e+00 1.495392513275146484e+01
2.134174346923828125e+01 0.000000000000000000e+00 2.029864120483398438e+01
1.568592739105224609e+01 0.000000000000000000e+00 1.157765102386474609e+01
4.352023124694824219e+00 0.000000000000000000e+00 4.710803031921386719e+00
7.925415992736816406e+00 0.000000000000000000e+00 5.611197471618652344e+00
1.700128436088562012e+00 0.000000000000000000e+00 5.663816452026367188e+00
2.644509077072143555e+00 0.000000000000000000e+00 4.015371322631835938e+00
1.058341407775878906e+01 0.000000000000000000e+00 6.368720054626464844e+00
1.058341407775878906e+01 0.000000000000000000e+00 6.368720054626464844e+00
8.329652786254882812e+00 0.000000000000000000e+00 6.190195083618164062e+00
1.173766231536865234e+01 0.000000000000000000e+00 9.190693855285644531e+00
1.571897983551025391e+01 0.000000000000000000e+00 1.025971794128417969e+01
1.571897983551025391e+01 0.000000000000000000e+00 1.025971794128417969e+01
1.752792358398437500e+01 0.000000000000000000e+00 1.312496089935302734e+01
1.691144180297851562e+01 0.000000000000000000e+00 1.576643276214599609e+01
2.412602996826171875e+01 0.000000000000000000e+00 2.927956771850585938e+01
0.000000000000000000e+00 0.000000000000000000e+00 1.203060054779052734e+01
6.349477767944335938e+00 0.000000000000000000e+00 7.105097770690917969e+00
1.034679412841796875e+01 0.000000000000000000e+00 1.545787239074707031e+01
1.034679412841796875e+01 0.000000000000000000e+00 1.545787239074707031e+01
1.059517192840576172e+01 0.000000000000000000e+00 1.346864509582519531e+01
1.298728084564208984e+01 0.000000000000000000e+00 8.134614944458007812e+00
1.724833679199218750e+01 0.000000000000000000e+00 1.787819671630859375e+01
1.535455608367919922e+01 0.000000000000000000e+00 1.374980068206787109e+01
1.322117519378662109e+01 0.000000000000000000e+00 1.552332973480224609e+01
1.322117519378662109e+01 0.000000000000000000e+00 1.552332973480224609e+01
1.355618190765380859e+01 0.000000000000000000e+00 1.499735546112060547e+01
2.295616340637207031e+01 0.000000000000000000e+00 1.545781707763671875e+01
1.660685729980468750e+01 0.000000000000000000e+00 1.492913341522216797e+01
1.660685729980468750e+01 0.000000000000000000e+00 1.492913341522216797e+01
1.469705867767333984e+01 0.000000000000000000e+00 1.847314453125000000e+01
1.338423824310302734e+01 0.000000000000000000e+00 1.730987548828125000e+01
1.194636631011962891e+01 0.000000000000000000e+00 7.369953155517578125e+00
1.376107406616210938e+01 0.000000000000000000e+00 1.580555152893066406e+01
1.905631256103515625e+01 0.000000000000000000e+00 1.645882415771484375e+01
2.088889312744140625e+01 0.000000000000000000e+00 3.481128311157226562e+01
2.230719757080078125e+01 0.000000000000000000e+00 3.486196517944335938e+01
1.055059814453125000e+01 0.000000000000000000e+00 4.759956741333007812e+01
8.684149742126464844e+00 0.000000000000000000e+00 2.168504714965820312e+01
2.543511581420898438e+01 0.000000000000000000e+00 3.303272247314453125e+01
2.347338294982910156e+01 0.000000000000000000e+00 4.288713073730468750e+01
2.727482032775878906e+01 0.000000000000000000e+00 5.083060073852539062e+01
2.677550125122070312e+01 0.000000000000000000e+00 2.738650894165039062e+01
7.586583137512207031e+00 0.000000000000000000e+00 9.212714195251464844e+00
1.063361263275146484e+01 0.000000000000000000e+00 2.565764617919921875e+01
1.063361263275146484e+01 0.000000000000000000e+00 2.565764617919921875e+01
0.000000000000000000e+00 0.000000000000000000e+00 2.073647499084472656e+01
1.650531959533691406e+01 0.000000000000000000e+00 1.488551902770996094e+01
2.828442573547363281e+01 0.000000000000000000e+00 7.592606353759765625e+01
0.000000000000000000e+00 0.000000000000000000e+00 1.260332393646240234e+01
1.310746955871582031e+01 0.000000000000000000e+00 2.320825576782226562e+01
1.310746955871582031e+01 0.000000000000000000e+00 2.320825576782226562e+01
2.343008422851562500e+01 0.000000000000000000e+00 2.988573074340820312e+01
2.275576400756835938e+01 0.000000000000000000e+00 2.796202468872070312e+01
2.049463653564453125e+01 0.000000000000000000e+00 2.834051132202148438e+01
1.526743984222412109e+01 0.000000000000000000e+00 1.638443374633789062e+01
1.526743984222412109e+01 0.000000000000000000e+00 1.638443374633789062e+01
2.740275764465332031e+01 0.000000000000000000e+00 2.018762207031250000e+01
6.780412673950195312e+00 0.000000000000000000e+00 1.843777847290039062e+01
2.524215126037597656e+01 0.000000000000000000e+00 4.293209838867187500e+01
2.445325851440429688e+01 0.000000000000000000e+00 3.947990036010742188e+01
1.735417747497558594e+01 0.000000000000000000e+00 2.999320602416992188e+01
0.000000000000000000e+00 0.000000000000000000e+00 2.835731697082519531e+01
1.039378070831298828e+01 0.000000000000000000e+00 1.379881763458251953e+01
1.105487823486328125e+01 0.000000000000000000e+00 1.429422378540039062e+01
1.694435691833496094e+01 0.000000000000000000e+00 2.153841400146484375e+01
2.899321746826171875e+01 0.000000000000000000e+00 3.943760299682617188e+01
2.899321746826171875e+01 0.000000000000000000e+00 3.943760299682617188e+01
1.105107116699218750e+01 0.000000000000000000e+00 1.763094139099121094e+01
6.577794075012207031e+00 0.000000000000000000e+00 1.644871330261230469e+01
7.736762046813964844e+00 0.000000000000000000e+00 4.017642974853515625e+00
9.480479240417480469e+00 0.000000000000000000e+00 6.692486763000488281e+00
1.096797561645507812e+01 0.000000000000000000e+00 3.457853317260742188e+01
0.000000000000000000e+00 0.000000000000000000e+00 3.611526107788085938e+01
1.797618746757507324e+00 0.000000000000000000e+00 8.032312393188476562e+00
2.517821502685546875e+01 0.000000000000000000e+00 1.709014892578125000e+01
2.231168746948242188e+01 0.000000000000000000e+00 2.299180984497070312e+01
2.133129882812500000e+01 0.000000000000000000e+00 2.151877212524414062e+01
9.071430206298828125e+00 0.000000000000000000e+00 9.742474555969238281e+00
1.509595394134521484e+01 0.000000000000000000e+00 1.789178466796875000e+01
1.545281124114990234e+01 0.000000000000000000e+00 1.988457870483398438e+01
9.844849586486816406e+00 0.000000000000000000e+00 8.791508674621582031e+00
1.188003921508789062e+01 0.000000000000000000e+00 7.321228981018066406e+00
9.325745582580566406e+00 0.000000000000000000e+00 3.430619001388549805e+00
5.936238288879394531e+00 0.000000000000000000e+00 3.813688039779663086e+00
1.049749279022216797e+01 0.000000000000000000e+00 9.626042366027832031e+00
9.971748352050781250e+00 0.000000000000000000e+00 7.968577384948730469e+00
2.753446578979492188e+01 0.000000000000000000e+00 1.882106781005859375e+01
9.295980453491210938e+00 0.000000000000000000e+00 8.632622718811035156e+00
8.099695205688476562e+00 0.000000000000000000e+00 4.544164657592773438e+00
5.763481140136718750e+00 0.000000000000000000e+00 4.096315860748291016e+00
9.013972282409667969e+00 0.000000000000000000e+00 7.402417182922363281e+00
1.571414852142333984e+01 0.000000000000000000e+00 1.517748546600341797e+01
2.792583465576171875e+01 0.000000000000000000e+00 1.910856819152832031e+01
1.521100330352783203e+01 0.000000000000000000e+00 9.970787048339843750e+00
1.175326251983642578e+01 0.000000000000000000e+00 5.215596199035644531e+00
1.194483089447021484e+01 0.000000000000000000e+00 1.277871608734130859e+01
7.521469116210937500e+00 0.000000000000000000e+00 7.637757301330566406e+00
7.521469116210937500e+00 0.000000000000000000e+00 7.637757301330566406e+00
8.645867347717285156e+00 0.000000000000000000e+00 6.449728965759277344e+00
1.384348201751708984e+01 0.000000000000000000e+00 1.286351680755615234e+01
2.349465751647949219e+01 0.000000000000000000e+00 1.893780899047851562e+01
1.805287170410156250e+01 0.000000000000000000e+00 1.616627120971679688e+01
7.358954429626464844e+00 0.000000000000000000e+00 1.640331649780273438e+01
1.015454387664794922e+01 0.000000000000000000e+00 2.111157989501953125e+01
2.262931060791015625e+01 0.000000000000000000e+00 5.601205062866210938e+01
1.585258197784423828e+01 0.000000000000000000e+00 2.349733161926269531e+01
1.656092262268066406e+01 0.000000000000000000e+00 3.690077590942382812e+01
1.656092262268066406e+01 0.000000000000000000e+00 3.690077590942382812e+01
2.458880996704101562e+01 0.000000000000000000e+00 4.902559280395507812e+01
2.696366119384765625e+01 0.000000000000000000e+00 1.840175056457519531e+01
1.158293437957763672e+01 0.000000000000000000e+00 1.804090881347656250e+01
1.052220058441162109e+01 0.000000000000000000e+00 4.495764160156250000e+01
1.082060146331787109e+01 0.000000000000000000e+00 2.082366943359375000e+01
1.109383296966552734e+01 0.000000000000000000e+00 1.633609390258789062e+01
1.881953620910644531e+01 0.000000000000000000e+00 2.323193740844726562e+01
8.724838256835937500e+00 0.000000000000000000e+00 1.206864070892333984e+01
1.768804740905761719e+01 0.000000000000000000e+00 2.054722785949707031e+01
1.079075813293457031e+01 0.000000000000000000e+00 1.638557815551757812e+01
1.010601043701171875e+01 0.000000000000000000e+00 1.495473194122314453e+01
1.144674491882324219e+01 0.000000000000000000e+00 9.861256599426269531e+00
2.125085449218750000e+01 0.000000000000000000e+00 2.160669326782226562e+01
1.029829311370849609e+01 0.000000000000000000e+00 2.948651885986328125e+01
1.272842693328857422e+01 0.000000000000000000e+00 2.726601791381835938e+01
1.878129243850708008e+00 0.000000000000000000e+00 1.626404380798339844e+01
1.310515499114990234e+01 0.000000000000000000e+00 2.067258453369140625e+01
1.237951183319091797e+01 0.000000000000000000e+00 9.033563613891601562e+00
8.808867454528808594e+00 0.000000000000000000e+00 1.170201778411865234e+01
1.336475276947021484e+01 0.000000000000000000e+00 1.465347766876220703e+01
8.605927467346191406e+00 0.000000000000000000e+00 9.566765785217285156e+00
1.983971405029296875e+01 0.000000000000000000e+00 1.859761428833007812e+01
4.354063987731933594e+00 0.000000000000000000e+00 1.040428543090820312e+01
6.439653396606445312e+00 0.000000000000000000e+00 7.293528556823730469e+00
6.439653396606445312e+00 0.000000000000000000e+00 7.293528556823730469e+00
7.738145828247070312e+00 0.000000000000000000e+00 1.281150150299072266e+01
7.738145828247070312e+00 0.000000000000000000e+00 1.281150150299072266e+01
1.023668098449707031e+01 0.000000000000000000e+00 1.906281852722167969e+01
7.596507072448730469e+00 0.000000000000000000e+00 1.058548545837402344e+01
1.185251426696777344e+01 0.000000000000000000e+00 7.301008224487304688e+00
1.185251426696777344e+01 0.000000000000000000e+00 7.301008224487304688e+00
1.560697841644287109e+01 0.000000000000000000e+00 1.096412372589111328e+01
1.642613792419433594e+01 0.000000000000000000e+00 1.066082096099853516e+01
1.642613792419433594e+01 0.000000000000000000e+00 1.066082096099853516e+01
2.219970512390136719e+01 0.000000000000000000e+00 1.336460399627685547e+01
1.618235588073730469e+01 0.000000000000000000e+00 1.048173618316650391e+01
1.981005477905273438e+01 0.000000000000000000e+00 1.662653541564941406e+01
1.981005477905273438e+01 0.000000000000000000e+00 1.662653541564941406e+01
1.396891689300537109e+01 0.000000000000000000e+00 8.597998619079589844e+00
1.035864543914794922e+01 0.000000000000000000e+00 2.422623872756958008e+00
1.461440372467041016e+01 0.000000000000000000e+00 1.161102676391601562e+01
1.461440372467041016e+01 0.000000000000000000e+00 1.161102676391601562e+01
1.098590278625488281e+01 0.000000000000000000e+00 1.355681180953979492e+00
1.626477813720703125e+01 0.000000000000000000e+00 2.255258560180664062e+01
1.393753719329833984e+01 0.000000000000000000e+00 1.986201858520507812e+01
4.261505603790283203e+00 0.000000000000000000e+00 1.003492355346679688e+01
1.670464324951171875e+01 0.000000000000000000e+00 1.496274089813232422e+01
1.670464324951171875e+01 0.000000000000000000e+00 1.496274089813232422e+01
2.134552383422851562e+01 0.000000000000000000e+00 1.651628112792968750e+01
2.386167144775390625e+01 0.000000000000000000e+00 1.929722213745117188e+01
2.086452484130859375e+01 0.000000000000000000e+00 2.109917831420898438e+01
2.005353355407714844e+01 0.000000000000000000e+00 1.332552719116210938e+01
1.817066955566406250e+01 0.000000000000000000e+00 1.869784927368164062e+01
1.573773860931396484e+01 0.000000000000000000e+00 1.525233745574951172e+01
9.147194862365722656e+00 0.000000000000000000e+00 8.703552246093750000e+00
7.822975158691406250e+00 0.000000000000000000e+00 1.600930452346801758e+00
9.034117698669433594e+00 0.000000000000000000e+00 5.789895057678222656e+00
1.479554367065429688e+01 0.000000000000000000e+00 9.462975502014160156e+00
1.479554367065429688e+01 0.000000000000000000e+00 9.462975502014160156e+00
1.713957405090332031e+01 0.000000000000000000e+00 1.118491458892822266e+01
1.837742614746093750e+01 0.000000000000000000e+00 2.120957565307617188e+01
1.127921009063720703e+01 0.000000000000000000e+00 1.355601882934570312e+01
1.579649257659912109e+01 0.000000000000000000e+00 1.335877132415771484e+01
1.722156333923339844e+01 0.000000000000000000e+00 1.239870166778564453e+01
4.313744068145751953e+00 0.000000000000000000e+00 7.470737457275390625e+00
4.313744068145751953e+00 0.000000000000000000e+00 7.470737457275390625e+00
1.065464591979980469e+01 0.000000000000000000e+00 3.164968872070312500e+01
6.747255325317382812e+00 0.000000000000000000e+00 7.936292648315429688e+00
6.747255325317382812e+00 0.000000000000000000e+00 7.936292648315429688e+00
8.379240036010742188e+00 0.000000000000000000e+00 1.134647941589355469e+01
1.292325210571289062e+01 0.000000000000000000e+00 2.084162712097167969e+01
1.180305719375610352e+00 0.000000000000000000e+00 6.209161758422851562e+00
8.950287818908691406e+00 0.000000000000000000e+00 1.532744646072387695e+00
2.064852905273437500e+01 0.000000000000000000e+00 2.227305221557617188e+01
1.167839717864990234e+01 0.000000000000000000e+00 2.966476821899414062e+01
1.157120800018310547e+01 0.000000000000000000e+00 1.053357601165771484e+01
1.157120800018310547e+01 0.000000000000000000e+00 1.053357601165771484e+01
2.143776893615722656e+01 0.000000000000000000e+00 1.434239482879638672e+01
2.096976661682128906e+01 0.000000000000000000e+00 1.482219314575195312e+01
1.364782619476318359e+01 0.000000000000000000e+00 1.833060455322265625e+01
9.133531570434570312e+00 0.000000000000000000e+00 1.852960205078125000e+01
1.767527008056640625e+01 0.000000000000000000e+00 2.100588607788085938e+01
2.329383850097656250e+01 0.000000000000000000e+00 2.158118629455566406e+01
2.423623275756835938e+01 0.000000000000000000e+00 1.639816474914550781e+01
1.521001434326171875e+01 0.000000000000000000e+00 9.767449378967285156e+00
1.332258987426757812e+01 0.000000000000000000e+00 1.236847209930419922e+01
1.453021717071533203e+01 0.000000000000000000e+00 1.391434288024902344e+01
1.453021717071533203e+01 0.000000000000000000e+00 1.391434288024902344e+01
7.728050231933593750e+00 0.000000000000000000e+00 9.392476081848144531e+00
8.285359382629394531e+00 0.000000000000000000e+00 2.180400848388671875e+00
8.315114974975585938e+00 0.000000000000000000e+00 8.369877815246582031e+00
5.619325637817382812e+00 0.000000000000000000e+00 2.722069501876831055e+00
7.441090583801269531e+00 0.000000000000000000e+00 6.065345764160156250e+00
6.119954109191894531e+00 0.000000000000000000e+00 6.625486373901367188e+00
1.454982185363769531e+01 0.000000000000000000e+00 1.083504199981689453e+01
3.075631380081176758e+00 0.000000000000000000e+00 2.113022327423095703e+00
1.214903926849365234e+01 0.000000000000000000e+00 1.040520000457763672e+01
1.388185787200927734e+01 0.000000000000000000e+00 1.391157054901123047e+01
8.084428787231445312e+00 0.000000000000000000e+00 2.297527790069580078e-01
1.623990249633789062e+01 0.000000000000000000e+00 1.051377964019775391e+01
1.273332786560058594e+01 0.000000000000000000e+00 9.228968620300292969e+00
6.163199424743652344e+00 0.000000000000000000e+00 1.022688627243041992e+00
5.818467140197753906e+00 0.000000000000000000e+00 1.498508691787719727e+00
1.125468826293945312e+01 0.000000000000000000e+00 7.015266418457031250e+00
8.859032630920410156e+00 0.000000000000000000e+00 1.202363252639770508e+00
8.859032630920410156e+00 0.000000000000000000e+00 1.202363252639770508e+00
9.031660079956054688e+00 0.000000000000000000e+00 5.228791236877441406e+00
9.805458068847656250e+00 0.000000000000000000e+00 5.797228813171386719e+00
8.241832733154296875e+00 0.000000000000000000e+00 1.387253379821777344e+01
1.709182739257812500e+01 0.000000000000000000e+00 1.114983940124511719e+01
1.709182739257812500e+01 0.000000000000000000e+00 1.114983940124511719e+01
1.526216030120849609e+01 0.000000000000000000e+00 6.638119697570800781e+00
1.533954334259033203e+01 0.000000000000000000e+00 8.068837165832519531e+00
1.533954334259033203e+01 0.000000000000000000e+00 8.068837165832519531e+00
1.837711524963378906e+01 0.000000000000000000e+00 1.209401988983154297e+01
1.235172557830810547e+01 0.000000000000000000e+00 5.136191368103027344e+00
1.235172557830810547e+01 0.000000000000000000e+00 5.136191368103027344e+00
1.099541950225830078e+01 0.000000000000000000e+00 4.315299987792968750e+00
5.751895904541015625e+00 0.000000000000000000e+00 2.819457054138183594e+00
1.196911525726318359e+01 0.000000000000000000e+00 7.609947204589843750e+00
1.196911525726318359e+01 0.000000000000000000e+00 7.609947204589843750e+00
1.325304317474365234e+01 0.000000000000000000e+00 9.114977836608886719e+00
1.459708309173583984e+01 0.000000000000000000e+00 1.189263057708740234e+01
1.459708309173583984e+01 0.000000000000000000e+00 1.189263057708740234e+01
1.627077865600585938e+01 0.000000000000000000e+00 1.532498741149902344e+01
9.336001396179199219e+00 0.000000000000000000e+00 2.804156541824340820e+00
9.336001396179199219e+00 0.000000000000000000e+00 2.804156541824340820e+00
8.513501167297363281e+00 0.000000000000000000e+00 3.248366594314575195e+00
4.693170070648193359e+00 0.000000000000000000e+00 5.159005165100097656e+00
8.886871337890625000e+00 0.000000000000000000e+00 5.122428894042968750e+00
8.886871337890625000e+00 0.000000000000000000e+00 5.122428894042968750e+00
3.285261154174804688e+00 0.000000000000000000e+00 6.304061889648437500e+00
7.551423072814941406e+00 0.000000000000000000e+00 0.000000000000000000e+00
7.903117179870605469e+00 0.000000000000000000e+00 4.853266716003417969e+00
7.903117179870605469e+00 0.000000000000000000e+00 4.853266716003417969e+00
1.082780551910400391e+01 0.000000000000000000e+00 3.753230333328247070e+00
6.165751457214355469e+00 0.000000000000000000e+00 9.090655326843261719e+00
6.402986049652099609e+00 0.000000000000000000e+00 7.216908454895019531e+00
1.616736984252929688e+01 0.000000000000000000e+00 1.326141834259033203e+01
7.126706123352050781e+00 0.000000000000000000e+00 8.729190826416015625e+00
2.511082267761230469e+01 0.000000000000000000e+00 2.129193115234375000e+01
2.511082267761230469e+01 0.000000000000000000e+00 2.129193115234375000e+01
2.307697105407714844e+01 0.000000000000000000e+00 1.554656219482421875e+01
1.996783256530761719e+01 0.000000000000000000e+00 3.556195068359375000e+01
2.594492721557617188e+01 0.000000000000000000e+00 2.446782684326171875e+01
8.288921356201171875e+00 0.000000000000000000e+00 6.785850524902343750e+00
1.290601015090942383e+00 0.000000000000000000e+00 5.970793724060058594e+00
6.242374897003173828e+00 0.000000000000000000e+00 6.881296157836914062e+00
6.242374897003173828e+00 0.000000000000000000e+00 6.881296157836914062e+00
8.258355140686035156e+00 0.000000000000000000e+00 2.935231971740722656e+01
2.510379981994628906e+01 0.000000000000000000e+00 3.125081634521484375e+01
2.510379981994628906e+01 0.000000000000000000e+00 3.125081634521484375e+01
2.093891906738281250e+01 0.000000000000000000e+00 2.118555068969726562e+01
2.495267295837402344e+01 0.000000000000000000e+00 3.432599639892578125e+01
1.214311599731445312e+01 0.000000000000000000e+00 8.694834709167480469e+00
1.866624641418457031e+01 0.000000000000000000e+00 2.179037094116210938e+01
2.067195892333984375e+01 0.000000000000000000e+00 3.057558059692382812e+01
2.303751373291015625e+01 0.000000000000000000e+00 2.919445419311523438e+01
1.249619770050048828e+01 0.000000000000000000e+00 2.142394256591796875e+01
1.249619770050048828e+01 0.000000000000000000e+00 2.142394256591796875e+01
1.401375675201416016e+01 0.000000000000000000e+00 2.312034416198730469e+01
1.292361545562744141e+01 0.000000000000000000e+00 2.554458618164062500e+01
1.125748825073242188e+01 0.000000000000000000e+00 2.243763923645019531e+01
1.665777778625488281e+01 0.000000000000000000e+00 2.042702674865722656e+01
1.637312698364257812e+01 0.000000000000000000e+00 1.083889293670654297e+01
1.561619472503662109e+01 0.000000000000000000e+00 1.721670913696289062e+01
1.841407012939453125e+01 0.000000000000000000e+00 2.059220695495605469e+01
2.124448394775390625e+01 0.000000000000000000e+00 2.103525924682617188e+01
1.926865386962890625e+01 0.000000000000000000e+00 2.226344680786132812e+01
7.441992759704589844e+00 0.000000000000000000e+00 6.123651504516601562e+00
7.441992759704589844e+00 0.000000000000000000e+00 6.123651504516601562e+00
5.136341094970703125e+00 0.000000000000000000e+00 4.570132732391357422e+00
5.368719100952148438e+00 0.000000000000000000e+00 1.875136184692382812e+01
1.259109210968017578e+01 0.000000000000000000e+00 9.327998161315917969e+00
6.837076187133789062e+00 0.000000000000000000e+00 1.126372814178466797e+01
1.951897239685058594e+01 0.000000000000000000e+00 1.615696334838867188e+01
1.951897239685058594e+01 0.000000000000000000e+00 1.615696334838867188e+01
1.572270870208740234e+01 0.000000000000000000e+00 1.958837509155273438e+01
1.977639007568359375e+01 0.000000000000000000e+00 1.984838104248046875e+01
1.977639007568359375e+01 0.000000000000000000e+00 1.984838104248046875e+01
1.132090187072753906e+01 0.000000000000000000e+00 8.354663848876953125e+00
1.115671348571777344e+01 0.000000000000000000e+00 7.960518836975097656e+00
8.842360496520996094e+00 0.000000000000000000e+00 2.540259361267089844e+00
4.402176380157470703e+00 0.000000000000000000e+00 2.989756822586059570e+00
1.242917346954345703e+01 0.000000000000000000e+00 1.575242710113525391e+01
1.445741367340087891e+01 0.000000000000000000e+00 1.766284561157226562e+01
1.445741367340087891e+01 0.000000000000000000e+00 1.766284561157226562e+01
1.200281047821044922e+01 0.000000000000000000e+00 7.180630683898925781e+00
1.282851505279541016e+01 0.000000000000000000e+00 6.196581840515136719e+00
1.440595912933349609e+01 0.000000000000000000e+00 1.246242046356201172e+01
1.019883632659912109e+01 0.000000000000000000e+00 6.646798133850097656e+00
2.552723312377929688e+01 0.000000000000000000e+00 2.121833801269531250e+01
2.552723312377929688e+01 0.000000000000000000e+00 2.121833801269531250e+01
2.222612953186035156e+01 0.000000000000000000e+00 1.492152976989746094e+01
2.222612953186035156e+01 0.000000000000000000e+00 1.492152976989746094e+01
1.759143447875976562e+01 0.000000000000000000e+00 1.151685428619384766e+01
4.098155021667480469e+00 0.000000000000000000e+00 1.604608654975891113e+00
5.765453338623046875e+00 0.000000000000000000e+00 2.315964698791503906e+00
5.765453338623046875e+00 0.000000000000000000e+00 2.315964698791503906e+00
9.617338180541992188e+00 0.000000000000000000e+00 1.960226297378540039e+00
1.316224193572998047e+01 0.000000000000000000e+00 1.060277462005615234e+01
1.316224193572998047e+01 0.000000000000000000e+00 1.060277462005615234e+01
1.102015590667724609e+01 0.000000000000000000e+00 1.068873500823974609e+01
1.392233180999755859e+01 0.000000000000000000e+00 1.458587551116943359e+01
1.280105113983154297e+01 0.000000000000000000e+00 1.244229412078857422e+01
8.797422409057617188e+00 0.000000000000000000e+00 7.946888923645019531e+00
8.797422409057617188e+00 0.000000000000000000e+00 7.946888923645019531e+00
1.195867729187011719e+01 0.000000000000000000e+00 7.378996849060058594e+00
1.051616191864013672e+01 0.000000000000000000e+00 5.472012519836425781e+00
5.547597885131835938e+00 0.000000000000000000e+00 3.833060979843139648e+00
5.547597885131835938e+00 0.000000000000000000e+00 3.833060979843139648e+00
2.006886291503906250e+01 0.000000000000000000e+00 1.433251953125000000e+01
9.433415412902832031e+00 0.000000000000000000e+00 7.374026298522949219e+00
2.041492462158203125e+01 0.000000000000000000e+00 1.948710823059082031e+01
1.812840270996093750e+01 0.000000000000000000e+00 1.624567604064941406e+01
1.812840270996093750e+01 0.000000000000000000e+00 1.624567604064941406e+01
8.874962806701660156e+00 0.000000000000000000e+00 1.206623935699462891e+01
8.874962806701660156e+00 0.000000000000000000e+00 1.206623935699462891e+01
3.159942817687988281e+01 0.000000000000000000e+00 5.986728286743164062e+01
3.038365364074707031e+01 0.000000000000000000e+00 5.732680511474609375e+01
3.038365364074707031e+01 0.000000000000000000e+00 5.732680511474609375e+01
8.030176162719726562e+00 0.000000000000000000e+00 7.976175308227539062e+00
1.963141632080078125e+01 0.000000000000000000e+00 6.915627288818359375e+01
1.963141632080078125e+01 0.000000000000000000e+00 6.915627288818359375e+01
0.000000000000000000e+00 0.000000000000000000e+00 5.963560104370117188e+01
1.122501850128173828e+01 0.000000000000000000e+00 1.729300689697265625e+01
3.192253112792968750e+01 0.000000000000000000e+00 3.784585189819335938e+01
6.944835662841796875e+00 0.000000000000000000e+00 1.426266574859619141e+01
6.944835662841796875e+00 0.000000000000000000e+00 1.426266574859619141e+01
1.846632385253906250e+01 0.000000000000000000e+00 2.705046463012695312e+01
1.439027690887451172e+01 0.000000000000000000e+00 2.934111785888671875e+01
2.161737060546875000e+01 0.000000000000000000e+00 1.939992713928222656e+01
1.763516807556152344e+01 0.000000000000000000e+00 1.154898166656494141e+01
1.372980403900146484e+01 0.000000000000000000e+00 1.113711452484130859e+01
5.961470603942871094e+00 0.000000000000000000e+00 3.462325334548950195e+00
1.897617340087890625e+01 0.000000000000000000e+00 2.395250320434570312e+01
1.840504455566406250e+01 0.000000000000000000e+00 1.821829605102539062e+01
1.916144180297851562e+01 0.000000000000000000e+00 1.706192016601562500e+01
1.728570175170898438e+01 0.000000000000000000e+00 1.668806266784667969e+01
6.138057708740234375e+00 0.000000000000000000e+00 6.663315773010253906e+00
6.138057708740234375e+00 0.000000000000000000e+00 6.663315773010253906e+00
1.205755519866943359e+01 0.000000000000000000e+00 1.329949855804443359e+01
1.205755519866943359e+01 0.000000000000000000e+00 1.329949855804443359e+01
1.506966304779052734e+01 0.000000000000000000e+00 1.665675735473632812e+01
1.513142681121826172e+01 0.000000000000000000e+00 9.709717750549316406e+00
1.263416194915771484e+01 0.000000000000000000e+00 1.290711879730224609e+01
1.417831325531005859e+01 0.000000000000000000e+00 1.023694133758544922e+01
8.657760620117187500e+00 0.000000000000000000e+00 1.059695482254028320e+00
8.795737266540527344e+00 0.000000000000000000e+00 1.243555736541748047e+01
7.558798789978027344e+00 0.000000000000000000e+00 9.632089614868164062e+00
7.558798789978027344e+00 0.000000000000000000e+00 9.632089614868164062e+00
6.607593059539794922e+00 0.000000000000000000e+00 7.163931846618652344e+00
4.773769855499267578e+00 0.000000000000000000e+00 1.248807907104492188e+00
1.063345336914062500e+01 0.000000000000000000e+00 7.571228981018066406e+00
9.523023605346679688e+00 0.000000000000000000e+00 3.768560409545898438e+00
9.533670425415039062e+00 0.000000000000000000e+00 5.215914726257324219e+00
9.533670425415039062e+00 0.000000000000000000e+00 5.215914726257324219e+00
8.413640022277832031e+00 0.000000000000000000e+00 4.774790287017822266e+00
7.494148254394531250e+00 0.000000000000000000e+00 5.754095077514648438e+00
1.357893943786621094e+01 0.000000000000000000e+00 3.383233642578125000e+01
1.357893943786621094e+01 0.000000000000000000e+00 3.383233642578125000e+01
7.024401664733886719e+00 0.000000000000000000e+00 1.028224086761474609e+01
7.650371551513671875e+00 0.000000000000000000e+00 1.015722560882568359e+01
3.124309539794921875e+00 0.000000000000000000e+00 6.198731422424316406e+00
1.336729526519775391e+01 0.000000000000000000e+00 5.462263107299804688e+00
2.025696945190429688e+01 0.000000000000000000e+00 1.689065170288085938e+01
2.064466094970703125e+01 0.000000000000000000e+00 1.836855697631835938e+01
1.028685665130615234e+01 0.000000000000000000e+00 3.881665468215942383e+00
8.028834342956542969e+00 0.000000000000000000e+00 0.000000000000000000e+00
6.588112831115722656e+00 0.000000000000000000e+00 4.575790405273437500e+00
1.185380458831787109e+01 0.000000000000000000e+00 1.747121047973632812e+01
1.026294612884521484e+01 0.000000000000000000e+00 1.220258045196533203e+01
7.900050163269042969e+00 0.000000000000000000e+00 1.034516620635986328e+01
8.372321128845214844e+00 0.000000000000000000e+00 4.992076873779296875e+00
8.204458236694335938e+00 0.000000000000000000e+00 3.334520101547241211e+00
1.568745136260986328e+01 0.000000000000000000e+00 1.011817646026611328e+01
1.872054862976074219e+01 0.000000000000000000e+00 1.234630775451660156e+01
1.872054862976074219e+01 0.000000000000000000e+00 1.234630775451660156e+01
1.764526939392089844e+01 0.000000000000000000e+00 1.155640220642089844e+01
1.402831172943115234e+01 0.000000000000000000e+00 7.940691947937011719e+00
1.402831172943115234e+01 0.000000000000000000e+00 7.940691947937011719e+00
1.607722091674804688e+01 0.000000000000000000e+00 9.615841865539550781e+00
1.517890548706054688e+01 0.000000000000000000e+00 9.744595527648925781e+00
2.262687110900878906e+01 0.000000000000000000e+00 2.384663009643554688e+01
1.406674861907958984e+01 0.000000000000000000e+00 1.910188102722167969e+01
1.406674861907958984e+01 0.000000000000000000e+00 1.910188102722167969e+01
3.171748542785644531e+01 0.000000000000000000e+00 6.011397171020507812e+01
1.958719062805175781e+01 0.000000000000000000e+00 1.298294830322265625e+01
4.919805908203125000e+01 0.000000000000000000e+00 1.120443954467773438e+02
2.192881011962890625e+01 0.000000000000000000e+00 4.121998214721679688e+01
2.597376251220703125e+01 0.000000000000000000e+00 5.310221481323242188e+01
1.628104019165039062e+01 0.000000000000000000e+00 5.818339347839355469e+00
2.421264457702636719e+01 0.000000000000000000e+00 4.453155136108398438e+01
1.129416942596435547e+01 0.000000000000000000e+00 8.950034141540527344e+00
2.880014801025390625e+01 0.000000000000000000e+00 4.126523208618164062e+01
1.613766479492187500e+01 0.000000000000000000e+00 3.064296340942382812e+01
2.805159759521484375e+01 0.000000000000000000e+00 3.484035873413085938e+01
1.002897453308105469e+01 0.000000000000000000e+00 2.719265365600585938e+01
1.002897453308105469e+01 0.000000000000000000e+00 2.719265365600585938e+01
1.001900005340576172e+01 0.000000000000000000e+00 1.661522674560546875e+01
1.001900005340576172e+01 0.000000000000000000e+00 1.661522674560546875e+01
3.448140716552734375e+01 0.000000000000000000e+00 2.912134361267089844e+01
1.505372428894042969e+01 0.000000000000000000e+00 1.395367336273193359e+01
1.505372428894042969e+01 0.000000000000000000e+00 1.395367336273193359e+01
1.015071487426757812e+01 0.000000000000000000e+00 5.040538406372070312e+01
7.264088153839111328e+00 0.000000000000000000e+00 6.667593002319335938e+00
5.028555870056152344e+00 0.000000000000000000e+00 4.344905853271484375e+00
5.028555870056152344e+00 0.000000000000000000e+00 4.344905853271484375e+00
1.446700191497802734e+01 0.000000000000000000e+00 9.221627235412597656e+00
5.787603378295898438e+00 0.000000000000000000e+00 5.931008338928222656e+00
7.083672046661376953e+00 0.000000000000000000e+00 8.639266967773437500e+00
6.293286800384521484e+00 0.000000000000000000e+00 5.495500564575195312e+00
6.293286800384521484e+00 0.000000000000000000e+00 5.495500564575195312e+00
1.010616207122802734e+01 0.000000000000000000e+00 8.039612770080566406e+00
7.559956550598144531e+00 0.000000000000000000e+00 1.075462102890014648e+00
7.559956550598144531e+00 0.000000000000000000e+00 1.075462102890014648e+00
2.286325836181640625e+01 0.000000000000000000e+00 1.672248458862304688e+01
2.528940010070800781e+01 0.000000000000000000e+00 1.808968162536621094e+01
2.327933311462402344e+01 0.000000000000000000e+00 1.813150024414062500e+01
2.428086280822753906e+01 0.000000000000000000e+00 1.917070770263671875e+01
1.528005313873291016e+01 0.000000000000000000e+00 1.434847831726074219e+01
1.528005313873291016e+01 0.000000000000000000e+00 1.434847831726074219e+01
1.068688678741455078e+01 0.000000000000000000e+00 3.269561052322387695e+00
8.434689521789550781e+00 0.000000000000000000e+00 4.070245742797851562e+00
5.494860649108886719e+00 0.000000000000000000e+00 4.041995048522949219e+00
5.494860649108886719e+00 0.000000000000000000e+00 4.041995048522949219e+00
1.423491954803466797e+01 0.000000000000000000e+00 8.522502899169921875e+00
1.144905757904052734e+01 0.000000000000000000e+00 3.151021242141723633e+00
1.185735416412353516e+01 0.000000000000000000e+00 8.343721389770507812e+00
6.025002956390380859e+00 0.000000000000000000e+00 5.429098129272460938e+00
6.025002956390380859e+00 0.000000000000000000e+00 5.429098129272460938e+00
1.337998294830322266e+01 0.000000000000000000e+00 1.145573329925537109e+01
1.337998294830322266e+01 0.000000000000000000e+00 1.145573329925537109e+01
2.483423614501953125e+01 0.000000000000000000e+00 2.403404426574707031e+01
2.843115997314453125e+01 0.000000000000000000e+00 3.318861007690429688e+01
1.162304210662841797e+01 0.000000000000000000e+00 1.259656429290771484e+01
1.162304210662841797e+01 0.000000000000000000e+00 1.259656429290771484e+01
6.478579521179199219e+00 0.000000000000000000e+00 4.712175369262695312e+00
1.851624488830566406e+01 0.000000000000000000e+00 1.219622516632080078e+01
9.388025283813476562e+00 0.000000000000000000e+00 1.159026622772216797e+00
1.539211463928222656e+01 0.000000000000000000e+00 9.901221275329589844e+00
1.396972560882568359e+01 0.000000000000000000e+00 8.856325149536132812e+00
1.396972560882568359e+01 0.000000000000000000e+00 8.856325149536132812e+00
8.141736030578613281e+00 0.000000000000000000e+00 3.672928571701049805e+00
1.117988109588623047e+01 0.000000000000000000e+00 4.388022422790527344e+00
1.352814006805419922e+01 0.000000000000000000e+00 5.900027275085449219e+00
2.173293113708496094e+01 0.000000000000000000e+00 1.472429943084716797e+01
2.329928398132324219e+01 0.000000000000000000e+00 1.704279136657714844e+01
2.458725929260253906e+01 0.000000000000000000e+00 2.305699539184570312e+01
2.458725929260253906e+01 0.000000000000000000e+00 2.305699539184570312e+01
2.803231430053710938e+01 0.000000000000000000e+00 2.852314758300781250e+01
2.115974044799804688e+01 0.000000000000000000e+00 3.225432968139648438e+01
2.334926986694335938e+01 0.000000000000000000e+00 2.918999862670898438e+01
1.088491630554199219e+01 0.000000000000000000e+00 3.171597671508789062e+01
2.609665298461914062e+01 0.000000000000000000e+00 4.836870574951171875e+01
2.609665298461914062e+01 0.000000000000000000e+00 4.836870574951171875e+01
9.369111061096191406e+00 0.000000000000000000e+00 3.351787185668945312e+01
2.056332397460937500e+01 0.000000000000000000e+00 2.684966850280761719e+01
1.851298713684082031e+01 0.000000000000000000e+00 5.132068252563476562e+01
1.847640991210937500e+01 0.000000000000000000e+00 3.759908676147460938e+01
1.847640991210937500e+01 0.000000000000000000e+00 3.759908676147460938e+01
1.932927703857421875e+01 0.000000000000000000e+00 3.837705612182617188e+01
1.286672115325927734e+01 0.000000000000000000e+00 2.847022438049316406e+01
2.704718589782714844e+00 0.000000000000000000e+00 1.123468399047851562e+01
1.484478664398193359e+01 0.000000000000000000e+00 3.235704040527343750e+01
8.088595390319824219e+00 0.000000000000000000e+00 2.577441024780273438e+01
8.088595390319824219e+00 0.000000000000000000e+00 2.577441024780273438e+01
6.835421562194824219e+00 0.000000000000000000e+00 4.932658195495605469e+00
1.802396535873413086e+00 0.000000000000000000e+00 4.864711761474609375e+00
1.803385925292968750e+01 0.000000000000000000e+00 2.748898696899414062e+01
1.979276275634765625e+01 0.000000000000000000e+00 3.637034988403320312e+01
2.884824371337890625e+01 0.000000000000000000e+00 5.644326400756835938e+01
2.884824371337890625e+01 0.000000000000000000e+00 5.644326400756835938e+01
1.077096176147460938e+01 0.000000000000000000e+00 1.634421157836914062e+01
1.077096176147460938e+01 0.000000000000000000e+00 1.634421157836914062e+01
8.510700225830078125e+00 0.000000000000000000e+00 1.688414001464843750e+01
1.849648094177246094e+01 0.000000000000000000e+00 1.932233047485351562e+01
1.311436367034912109e+01 0.000000000000000000e+00 1.509136867523193359e+01
1.311436367034912109e+01 0.000000000000000000e+00 1.509136867523193359e+01
1.024513530731201172e+01 0.000000000000000000e+00 1.057264614105224609e+01
1.024513530731201172e+01 0.000000000000000000e+00 1.057264614105224609e+01
1.371736526489257812e+01 0.000000000000000000e+00 8.670939445495605469e+00
2.275399017333984375e+01 0.000000000000000000e+00 2.303120040893554688e+01
1.679749298095703125e+01 0.000000000000000000e+00 1.450522518157958984e+01
1.788494873046875000e+01 0.000000000000000000e+00 1.572898387908935547e+01
1.813056182861328125e+01 0.000000000000000000e+00 1.578451824188232422e+01
1.737617683410644531e+01 0.000000000000000000e+00 1.735765075683593750e+01
9.774947166442871094e+00 0.000000000000000000e+00 5.385197639465332031e+00
1.499174976348876953e+01 0.000000000000000000e+00 9.607110023498535156e+00
1.499174976348876953e+01 0.000000000000000000e+00 9.607110023498535156e+00
9.856891632080078125e+00 0.000000000000000000e+00 5.835012435913085938e+00
9.856891632080078125e+00 0.000000000000000000e+00 5.835012435913085938e+00
1.466952991485595703e+01 0.000000000000000000e+00 6.059011459350585938e+00
1.466952991485595703e+01 0.000000000000000000e+00 6.059011459350585938e+00
8.468298912048339844e+00 0.000000000000000000e+00 5.637322425842285156e+00
1.280401802062988281e+01 0.000000000000000000e+00 7.999989509582519531e+00
2.428512001037597656e+01 0.000000000000000000e+00 1.643407630920410156e+01
1.292954540252685547e+01 0.000000000000000000e+00 7.865214347839355469e+00
1.292954540252685547e+01 0.000000000000000000e+00 7.865214347839355469e+00
1.275562953948974609e+01 0.000000000000000000e+00 9.262145042419433594e+00
2.326242828369140625e+01 0.000000000000000000e+00 2.453049087524414062e+01
2.245162200927734375e+01 0.000000000000000000e+00 1.824557685852050781e+01
2.032463264465332031e+01 0.000000000000000000e+00 1.651566123962402344e+01
4.829430580139160156e+00 0.000000000000000000e+00 4.019699096679687500e+00
7.146303176879882812e+00 0.000000000000000000e+00 7.041629791259765625e+00
7.146303176879882812e+00 0.000000000000000000e+00 7.041629791259765625e+00
1.285444259643554688e+00 0.000000000000000000e+00 7.783377647399902344e+00
4.558615684509277344e-01 0.000000000000000000e+00 7.918236732482910156e+00
9.861454010009765625e+00 0.000000000000000000e+00 7.046438217163085938e+00
3.783790349960327148e+00 0.000000000000000000e+00 1.373674273490905762e+00
4.578528404235839844e+00 0.000000000000000000e+00 3.963295221328735352e+00
2.994472026824951172e+00 0.000000000000000000e+00 9.446708679199218750e+00
1.030200481414794922e+01 0.000000000000000000e+00 8.693150520324707031e+00
1.635971832275390625e+01 0.000000000000000000e+00 7.566150665283203125e+00
8.448142051696777344e+00 0.000000000000000000e+00 6.182900428771972656e+00
2.928748130798339844e+01 0.000000000000000000e+00 2.047120285034179688e+01
1.530578994750976562e+01 0.000000000000000000e+00 1.267307758331298828e+01
2.780276298522949219e+01 0.000000000000000000e+00 1.987120628356933594e+01
8.796983718872070312e+00 0.000000000000000000e+00 8.558185577392578125e+00
2.722910690307617188e+01 0.000000000000000000e+00 1.859674835205078125e+01
2.722910690307617188e+01 0.000000000000000000e+00 1.859674835205078125e+01
2.448247528076171875e+01 0.000000000000000000e+00 1.835193061828613281e+01
3.326290369033813477e+00 0.000000000000000000e+00 1.939936256408691406e+01
2.122230911254882812e+01 0.000000000000000000e+00 1.418411636352539062e+01
2.898467445373535156e+01 0.000000000000000000e+00 5.184494781494140625e+01
2.898467445373535156e+01 0.000000000000000000e+00 5.184494781494140625e+01
2.148849296569824219e+01 0.000000000000000000e+00 4.596904373168945312e+01
7.838767051696777344e+00 0.000000000000000000e+00 6.322558593750000000e+01
2.458554840087890625e+01 0.000000000000000000e+00 7.057619476318359375e+01
2.999546051025390625e+01 0.000000000000000000e+00 4.536196517944335938e+01
2.068830108642578125e+01 0.000000000000000000e+00 2.517828750610351562e+01
1.700330352783203125e+01 0.000000000000000000e+00 2.522629928588867188e+01
4.829371643066406250e+01 0.000000000000000000e+00 4.387512588500976562e+01
3.650927734375000000e+01 0.000000000000000000e+00 4.486320495605468750e+01
3.650927734375000000e+01 0.000000000000000000e+00 4.486320495605468750e+01
3.334727478027343750e+01 0.000000000000000000e+00 5.217330169677734375e+01
2.800639343261718750e+01 0.000000000000000000e+00 3.846435546875000000e+01
2.688967514038085938e+01 0.000000000000000000e+00 2.490952682495117188e+01
2.271390533447265625e+01 0.000000000000000000e+00 3.202553939819335938e+01
3.312033843994140625e+01 0.000000000000000000e+00 2.520163536071777344e+01
2.652069091796875000e+01 0.000000000000000000e+00 3.423437881469726562e+01
1.877746582031250000e+01 0.000000000000000000e+00 1.809836196899414062e+01
2.571164321899414062e+01 0.000000000000000000e+00 2.647731781005859375e+01
3.022651195526123047e+00 0.000000000000000000e+00 8.812796592712402344e+00
7.056742668151855469e+00 0.000000000000000000e+00 1.024647808074951172e+01
1.011622142791748047e+01 0.000000000000000000e+00 1.536719417572021484e+01
9.580100059509277344e+00 0.000000000000000000e+00 1.256829357147216797e+01
1.585564327239990234e+01 0.000000000000000000e+00 2.481467056274414062e+01
1.427585601806640625e+01 0.000000000000000000e+00 2.307716751098632812e+01
1.657836914062500000e+01 0.000000000000000000e+00 9.671759605407714844e+00
1.161421108245849609e+01 0.000000000000000000e+00 1.114846706390380859e+01
1.161421108245849609e+01 0.000000000000000000e+00 1.114846706390380859e+01
1.692878723144531250e+01 0.000000000000000000e+00 1.759574890136718750e+01
1.642468261718750000e+01 0.000000000000000000e+00 1.237110424041748047e+01
1.642468261718750000e+01 0.000000000000000000e+00 1.237110424041748047e+01
2.570256614685058594e+01 0.000000000000000000e+00 1.747534179687500000e+01
2.520558929443359375e+01 0.000000000000000000e+00 2.653940963745117188e+01
1.125711345672607422e+01 0.000000000000000000e+00 6.124034881591796875e+00
5.191983699798583984e+00 0.000000000000000000e+00 4.103922843933105469e+00
8.848019599914550781e+00 0.000000000000000000e+00 9.195740699768066406e+00
8.357020378112792969e+00 0.000000000000000000e+00 1.130005073547363281e+01
2.271516323089599609e+00 0.000000000000000000e+00 3.850859403610229492e+00
9.286557197570800781e+00 0.000000000000000000e+00 8.037547111511230469e+00
4.586147308349609375e+00 0.000000000000000000e+00 3.105524063110351562e+00
3.761781692504882812e+00 0.000000000000000000e+00 1.698920607566833496e+00
2.021260833740234375e+01 0.000000000000000000e+00 1.631016731262207031e+01
5.131786346435546875e+00 0.000000000000000000e+00 3.641561269760131836e+00
7.281535148620605469e+00 0.000000000000000000e+00 9.052721023559570312e+00
1.423693561553955078e+01 0.000000000000000000e+00 9.321639060974121094e+00
1.423693561553955078e+01 0.000000000000000000e+00 9.321639060974121094e+00
1.140396785736083984e+01 0.000000000000000000e+00 5.776869773864746094e+00
7.992695808410644531e+00 0.000000000000000000e+00 5.704901695251464844e+00
4.642598152160644531e+00 0.000000000000000000e+00 3.538410186767578125e+00
7.416390419006347656e+00 0.000000000000000000e+00 6.996593475341796875e+00
1.469740962982177734e+01 0.000000000000000000e+00 1.007608604431152344e+01
1.469740962982177734e+01 0.000000000000000000e+00 1.007608604431152344e+01
1.096220970153808594e+01 0.000000000000000000e+00 8.113298416137695312e+00
1.197159957885742188e+01 0.000000000000000000e+00 7.388489723205566406e+00
1.432256317138671875e+01 0.000000000000000000e+00 9.115521430969238281e+00
1.143864727020263672e+01 0.000000000000000000e+00 8.977501869201660156e+00
8.389184951782226562e+00 0.000000000000000000e+00 1.136726093292236328e+01
7.312379837036132812e+00 0.000000000000000000e+00 4.892753601074218750e+00
7.312379837036132812e+00 0.000000000000000000e+00 4.892753601074218750e+00
1.354778003692626953e+01 0.000000000000000000e+00 7.701580047607421875e+00
6.635630607604980469e+00 0.000000000000000000e+00 7.703041076660156250e+00
1.091922187805175781e+01 0.000000000000000000e+00 8.425059318542480469e+00
1.091922187805175781e+01 0.000000000000000000e+00 8.425059318542480469e+00
8.400766372680664062e+00 0.000000000000000000e+00 3.555953264236450195e+00
2.296041297912597656e+01 0.000000000000000000e+00 1.546093750000000000e+01
2.296041297912597656e+01 0.000000000000000000e+00 1.546093750000000000e+01
1.257235431671142578e+01 0.000000000000000000e+00 7.829807281494140625e+00
1.018204307556152344e+01 0.000000000000000000e+00 9.022079467773437500e+00
1.322082042694091797e+01 0.000000000000000000e+00 5.617662811279296875e+01
1.945965003967285156e+01 0.000000000000000000e+00 7.477355957031250000e+01
2.913342666625976562e+01 0.000000000000000000e+00 5.721993637084960938e+01
1.947555160522460938e+01 0.000000000000000000e+00 1.290093803405761719e+01
1.106107902526855469e+01 0.000000000000000000e+00 3.888191604614257812e+01
1.972063064575195312e+01 0.000000000000000000e+00 7.058046722412109375e+01
1.972063064575195312e+01 0.000000000000000000e+00 7.058046722412109375e+01
1.865017318725585938e+01 0.000000000000000000e+00 5.891759872436523438e+01
2.194709014892578125e+01 0.000000000000000000e+00 2.439551162719726562e+01
3.046453094482421875e+01 0.000000000000000000e+00 4.917537307739257812e+01
3.046453094482421875e+01 0.000000000000000000e+00 4.917537307739257812e+01
9.688307762145996094e+00 0.000000000000000000e+00 1.295839595794677734e+01
3.103274345397949219e+01 0.000000000000000000e+00 3.058060836791992188e+01
2.850112533569335938e+01 0.000000000000000000e+00 3.925610733032226562e+01
2.047696495056152344e+01 0.000000000000000000e+00 2.887409591674804688e+01
1.424558544158935547e+01 0.000000000000000000e+00 2.959900283813476562e+01
1.048896408081054688e+01 0.000000000000000000e+00 1.201484012603759766e+01
1.430497455596923828e+01 0.000000000000000000e+00 1.397004985809326172e+01
1.430497455596923828e+01 0.000000000000000000e+00 1.397004985809326172e+01
2.836454010009765625e+01 0.000000000000000000e+00 2.531079483032226562e+01
1.106808900833129883e+00 0.000000000000000000e+00 1.463402938842773438e+01
4.891029357910156250e+00 0.000000000000000000e+00 4.275529384613037109e+00
8.444037437438964844e+00 0.000000000000000000e+00 1.148187923431396484e+01
1.418098163604736328e+01 0.000000000000000000e+00 2.346977615356445312e+01
1.149924468994140625e+01 0.000000000000000000e+00 1.367370605468750000e+01
8.530789375305175781e+00 0.000000000000000000e+00 2.486864089965820312e+00
1.547275161743164062e+01 0.000000000000000000e+00 1.398959445953369141e+01
1.547275161743164062e+01 0.000000000000000000e+00 1.398959445953369141e+01
1.505816364288330078e+01 0.000000000000000000e+00 1.294387817382812500e+01
7.343708038330078125e+00 0.000000000000000000e+00 1.974850845336914062e+01
7.972258567810058594e+00 0.000000000000000000e+00 1.624331092834472656e+01
6.688115119934082031e+00 0.000000000000000000e+00 1.365522289276123047e+01
3.479534387588500977e+00 0.000000000000000000e+00 1.785582065582275391e+00
1.532181453704833984e+01 0.000000000000000000e+00 1.552679729461669922e+01
8.017220497131347656e+00 0.000000000000000000e+00 2.974631547927856445e+00
8.017220497131347656e+00 0.000000000000000000e+00 2.974631547927856445e+00
8.808432579040527344e+00 0.000000000000000000e+00 2.756207704544067383e+00
7.161114692687988281e+00 0.000000000000000000e+00 3.854677200317382812e+00
2.775247097015380859e-01 0.000000000000000000e+00 5.586153984069824219e+00
1.508834552764892578e+01 0.000000000000000000e+00 9.678070068359375000e+00
1.508834552764892578e+01 0.000000000000000000e+00 9.678070068359375000e+00
2.440385627746582031e+01 0.000000000000000000e+00 2.178247070312500000e+01
9.062988281250000000e+00 0.000000000000000000e+00 5.251805305480957031e+00
9.232596397399902344e+00 0.000000000000000000e+00 7.768984794616699219e+00
9.232596397399902344e+00 0.000000000000000000e+00 7.768984794616699219e+00
1.212306594848632812e+01 0.000000000000000000e+00 9.318374633789062500e+00
8.607802391052246094e+00 0.000000000000000000e+00 5.251719474792480469e+00
1.068554592132568359e+01 0.000000000000000000e+00 1.158905315399169922e+01
9.083914756774902344e+00 0.000000000000000000e+00 9.226115226745605469e+00
8.951024055480957031e+00 0.000000000000000000e+00 4.448218345642089844e+00
2.235498809814453125e+01 0.000000000000000000e+00 2.413019943237304688e+01
1.478891658782958984e+01 0.000000000000000000e+00 7.423296928405761719e+00
1.570087337493896484e+01 0.000000000000000000e+00 1.111106777191162109e+01
1.101161861419677734e+01 0.000000000000000000e+00 5.850699424743652344e+00
9.545548439025878906e+00 0.000000000000000000e+00 4.944163322448730469e+00
1.019625377655029297e+01 0.000000000000000000e+00 6.407153129577636719e+00
1.260173702239990234e+01 0.000000000000000000e+00 6.347525596618652344e+00
1.260173702239990234e+01 0.000000000000000000e+00 6.347525596618652344e+00
1.306950569152832031e+01 0.000000000000000000e+00 8.195017814636230469e+00
1.672947120666503906e+01 0.000000000000000000e+00 1.088365077972412109e+01
1.227995681762695312e+01 0.000000000000000000e+00 8.267580032348632812e+00
1.886055755615234375e+01 0.000000000000000000e+00 2.116921615600585938e+01
2.016934967041015625e+01 0.000000000000000000e+00 1.341060638427734375e+01
2.016934967041015625e+01 0.000000000000000000e+00 1.341060638427734375e+01
2.386906242370605469e+01 0.000000000000000000e+00 1.612843894958496094e+01
2.650050735473632812e+01 0.000000000000000000e+00 1.840468406677246094e+01
1.664112663269042969e+01 0.000000000000000000e+00 1.156971359252929688e+01
2.700928497314453125e+01 0.000000000000000000e+00 2.179971694946289062e+01
1.325958538055419922e+01 0.000000000000000000e+00 1.278429698944091797e+01
9.680603981018066406e+00 0.000000000000000000e+00 3.030922651290893555e+00
1.436254024505615234e+01 0.000000000000000000e+00 2.830496597290039062e+01
1.151838970184326172e+01 0.000000000000000000e+00 1.067640972137451172e+01
1.151838970184326172e+01 0.000000000000000000e+00 1.067640972137451172e+01
1.035544204711914062e+01 0.000000000000000000e+00 8.966361045837402344e+00
1.665974617004394531e+01 0.000000000000000000e+00 3.832391357421875000e+01
2.112316513061523438e+01 0.000000000000000000e+00 3.797612762451171875e+01
1.295223522186279297e+01 0.000000000000000000e+00 2.149158096313476562e+01
1.295223522186279297e+01 0.000000000000000000e+00 2.149158096313476562e+01
9.486914634704589844e+00 0.000000000000000000e+00 7.862006187438964844e+00
8.662195205688476562e+00 0.000000000000000000e+00 9.464744567871093750e+00
1.619617462158203125e+01 0.000000000000000000e+00 1.127311801910400391e+01
6.518995285034179688e+00 0.000000000000000000e+00 5.244704246520996094e+00
6.016858577728271484e+00 0.000000000000000000e+00 6.410058021545410156e+00
6.016858577728271484e+00 0.000000000000000000e+00 6.410058021545410156e+00
1.153370380401611328e+01 0.000000000000000000e+00 1.548350048065185547e+01
3.788479328155517578e+00 0.000000000000000000e+00 7.042214393615722656e+00
7.220841407775878906e+00 0.000000000000000000e+00 4.086995124816894531e+00
6.258756637573242188e+00 0.000000000000000000e+00 6.223800659179687500e+00
1.076651477813720703e+01 0.000000000000000000e+00 5.478924751281738281e+00
1.076651477813720703e+01 0.000000000000000000e+00 5.478924751281738281e+00
7.596949577331542969e+00 0.000000000000000000e+00 7.215840339660644531e+00
5.973306179046630859e+00 0.000000000000000000e+00 6.319051742553710938e+00
2.521334266662597656e+01 0.000000000000000000e+00 1.964731216430664062e+01
1.866949844360351562e+01 0.000000000000000000e+00 1.298766803741455078e+01
2.050154685974121094e+01 0.000000000000000000e+00 1.365464019775390625e+01
2.050154685974121094e+01 0.000000000000000000e+00 1.365464019775390625e+01
1.980154800415039062e+01 0.000000000000000000e+00 1.503539085388183594e+01
1.823315811157226562e+01 0.000000000000000000e+00 1.198826885223388672e+01
1.018459606170654297e+01 0.000000000000000000e+00 9.528311729431152344e+00
2.706478500366210938e+01 0.000000000000000000e+00 2.672464561462402344e+01
2.706478500366210938e+01 0.000000000000000000e+00 2.672464561462402344e+01
1.586138820648193359e+01 0.000000000000000000e+00 1.209342098236083984e+01
1.511390113830566406e+01 0.000000000000000000e+00 9.696843147277832031e+00
8.272022247314453125e+00 0.000000000000000000e+00 1.173170185089111328e+01
7.192572116851806641e+00 0.000000000000000000e+00 4.326227664947509766e+00
7.192572116851806641e+00 0.000000000000000000e+00 4.326227664947509766e+00
1.468516826629638672e+01 0.000000000000000000e+00 1.069654178619384766e+01
1.115897655487060547e+01 0.000000000000000000e+00 6.791531562805175781e+00
1.151845550537109375e+01 0.000000000000000000e+00 7.055606842041015625e+00
1.727429962158203125e+01 0.000000000000000000e+00 2.055051803588867188e+01
1.220323276519775391e+01 0.000000000000000000e+00 9.530135154724121094e+00
1.220323276519775391e+01 0.000000000000000000e+00 9.530135154724121094e+00
1.156311988830566406e+01 0.000000000000000000e+00 7.701802253723144531e+00
1.137268161773681641e+01 0.000000000000000000e+00 7.745935440063476562e+00
1.115346145629882812e+01 0.000000000000000000e+00 7.567895889282226562e+00
1.115346145629882812e+01 0.000000000000000000e+00 7.567895889282226562e+00
1.529195404052734375e+01 0.000000000000000000e+00 1.134676551818847656e+01
1.807410812377929688e+01 0.000000000000000000e+00 1.187142944335937500e+01
1.696685600280761719e+01 0.000000000000000000e+00 1.105803489685058594e+01
1.052033901214599609e+01 0.000000000000000000e+00 1.071028804779052734e+01
1.340359020233154297e+01 0.000000000000000000e+00 5.124754905700683594e+00
1.569541072845458984e+01 0.000000000000000000e+00 1.049059200286865234e+01
1.348089694976806641e+01 0.000000000000000000e+00 6.873970031738281250e+00
1.348089694976806641e+01 0.000000000000000000e+00 6.873970031738281250e+00
2.302671241760253906e+01 0.000000000000000000e+00 1.810192489624023438e+01
2.756649589538574219e+01 0.000000000000000000e+00 2.433579063415527344e+01
8.445214271545410156e+00 0.000000000000000000e+00 6.122631072998046875e+00
5.925512313842773438e+00 0.000000000000000000e+00 3.697003126144409180e+00
7.865431785583496094e+00 0.000000000000000000e+00 5.705169677734375000e+00
4.046863555908203125e+00 0.000000000000000000e+00 2.707973480224609375e+00
1.015107345581054688e+01 0.000000000000000000e+00 1.504889488220214844e+01
2.395964050292968750e+01 0.000000000000000000e+00 1.619497680664062500e+01
2.602875709533691406e+01 0.000000000000000000e+00 1.771496391296386719e+01
8.407074928283691406e+00 0.000000000000000000e+00 1.467502689361572266e+01
8.407074928283691406e+00 0.000000000000000000e+00 1.467502689361572266e+01
9.157279014587402344e+00 0.000000000000000000e+00 1.183996105194091797e+01
3.697882890701293945e+00 0.000000000000000000e+00 9.330014228820800781e+00
1.027449893951416016e+01 0.000000000000000000e+00 7.349869728088378906e+00
2.438015556335449219e+01 0.000000000000000000e+00 5.091404724121093750e+01
2.097115325927734375e+01 0.000000000000000000e+00 4.171541213989257812e+01
1.754236984252929688e+01 0.000000000000000000e+00 2.366789627075195312e+01
1.746290206909179688e+01 0.000000000000000000e+00 1.766168403625488281e+01
6.612420082092285156e+00 0.000000000000000000e+00 2.296536254882812500e+01
9.129756927490234375e+00 0.000000000000000000e+00 4.183970451354980469e+00
1.576635742187500000e+01 0.000000000000000000e+00 1.592828750610351562e+01
1.657863426208496094e+01 0.000000000000000000e+00 2.750172042846679688e+01
1.823691368103027344e+01 0.000000000000000000e+00 2.421137237548828125e+01
1.507596492767333984e+01 0.000000000000000000e+00 1.240722560882568359e+01
1.759699249267578125e+01 0.000000000000000000e+00 1.240355587005615234e+01
4.514305591583251953e+00 0.000000000000000000e+00 3.270330429077148438e+00
1.673365974426269531e+01 0.000000000000000000e+00 1.088672733306884766e+01
1.382702827453613281e+01 0.000000000000000000e+00 8.751499176025390625e+00
6.069801330566406250e+00 0.000000000000000000e+00 1.248891067504882812e+01
9.156601905822753906e+00 0.000000000000000000e+00 7.740922927856445312e+00
1.324035644531250000e+01 0.000000000000000000e+00 8.320526123046875000e+00
1.793044090270996094e+01 0.000000000000000000e+00 1.176589107513427734e+01
1.406882762908935547e+01 0.000000000000000000e+00 1.086267566680908203e+01
9.401238441467285156e+00 0.000000000000000000e+00 8.816503524780273438e+00
7.321243286132812500e+00 0.000000000000000000e+00 9.135694503784179688e+00
5.737920761108398438e+00 0.000000000000000000e+00 6.846510887145996094e+00
2.795727729797363281e+01 0.000000000000000000e+00 2.151756668090820312e+01
2.945373344421386719e+01 0.000000000000000000e+00 2.023097229003906250e+01
1.950434112548828125e+01 0.000000000000000000e+00 1.835541152954101562e+01
1.443272209167480469e+01 0.000000000000000000e+00 9.960649490356445312e+00
1.443272209167480469e+01 0.000000000000000000e+00 9.960649490356445312e+00
6.468586921691894531e+00 0.000000000000000000e+00 3.776184320449829102e+00
5.930357456207275391e+00 0.000000000000000000e+00 6.229306221008300781e+00
7.833894729614257812e+00 0.000000000000000000e+00 5.844312667846679688e+00
2.073571205139160156e+01 0.000000000000000000e+00 1.533842086791992188e+01
8.017395973205566406e+00 0.000000000000000000e+00 1.059037208557128906e+01
8.034750938415527344e+00 0.000000000000000000e+00 1.062663650512695312e+01
8.034750938415527344e+00 0.000000000000000000e+00 1.062663650512695312e+01
1.100532722473144531e+01 0.000000000000000000e+00 6.943576812744140625e+00
1.200172233581542969e+01 0.000000000000000000e+00 8.052116394042968750e+00
9.173143386840820312e+00 0.000000000000000000e+00 9.104039192199707031e+00
5.632549285888671875e+00 0.000000000000000000e+00 5.563392639160156250e+00
6.373997688293457031e+00 0.000000000000000000e+00 1.083018064498901367e+00
6.373997688293457031e+00 0.000000000000000000e+00 1.083018064498901367e+00
7.818232536315917969e+00 0.000000000000000000e+00 5.762982368469238281e+00
5.521924495697021484e+00 0.000000000000000000e+00 5.375846862792968750e+00
6.793295860290527344e+00 0.000000000000000000e+00 6.670063972473144531e+00
8.657178878784179688e+00 0.000000000000000000e+00 6.343661308288574219e+00
8.657178878784179688e+00 0.000000000000000000e+00 6.343661308288574219e+00
5.897095680236816406e+00 0.000000000000000000e+00 2.735233306884765625e+00
1.049799728393554688e+01 0.000000000000000000e+00 5.989833831787109375e+00
1.003518295288085938e+01 0.000000000000000000e+00 5.324558258056640625e+00
7.170866966247558594e+00 0.000000000000000000e+00 9.760962486267089844e+00
1.086362552642822266e+01 0.000000000000000000e+00 1.695437240600585938e+01
1.537553691864013672e+01 0.000000000000000000e+00 7.376421928405761719e+00
6.420492172241210938e+00 0.000000000000000000e+00 3.310611724853515625e+00
8.100034713745117188e+00 0.000000000000000000e+00 6.925949096679687500e+00
1.502264118194580078e+01 0.000000000000000000e+00 2.029354095458984375e+01
5.379805564880371094e+00 0.000000000000000000e+00 9.998084068298339844e+00
5.379805564880371094e+00 0.000000000000000000e+00 9.998084068298339844e+00
8.292904853820800781e+00 0.000000000000000000e+00 1.116607379913330078e+01
1.926701736450195312e+01 0.000000000000000000e+00 3.606466674804687500e+01
1.029177570343017578e+01 0.000000000000000000e+00 1.410396289825439453e+01
8.783039093017578125e+00 0.000000000000000000e+00 1.219025611877441406e+01
1.965285110473632812e+01 0.000000000000000000e+00 3.944565200805664062e+01
1.965285110473632812e+01 0.000000000000000000e+00 3.944565200805664062e+01
2.052579879760742188e+01 0.000000000000000000e+00 3.973762512207031250e+01
2.442331695556640625e+01 0.000000000000000000e+00 4.385770034790039062e+01
2.262676239013671875e+01 0.000000000000000000e+00 2.498825645446777344e+01
9.943048477172851562e+00 0.000000000000000000e+00 2.355395317077636719e+01
2.041047286987304688e+01 0.000000000000000000e+00 2.355746078491210938e+01
1.503955364227294922e+01 0.000000000000000000e+00 1.368067073822021484e+01
1.503955364227294922e+01 0.000000000000000000e+00 1.368067073822021484e+01
3.004212760925292969e+01 0.000000000000000000e+00 5.661315155029296875e+01
5.556884765625000000e+01 0.000000000000000000e+00 1.099536666870117188e+02
5.556884765625000000e+01 0.000000000000000000e+00 1.099536666870117188e+02
5.130592727661132812e+01 0.000000000000000000e+00 1.010458908081054688e+02
7.163125038146972656e+00 0.000000000000000000e+00 2.383459091186523438e+01
7.163125038146972656e+00 0.000000000000000000e+00 2.383459091186523438e+01
1.595678615570068359e+01 0.000000000000000000e+00 3.065949630737304688e+01
2.384294128417968750e+01 0.000000000000000000e+00 4.365936279296875000e+01
1.776698684692382812e+01 0.000000000000000000e+00 5.782984924316406250e+01
1.860411834716796875e+01 0.000000000000000000e+00 1.625722122192382812e+01
1.860411834716796875e+01 0.000000000000000000e+00 1.625722122192382812e+01
7.430575370788574219e+00 0.000000000000000000e+00 1.677340698242187500e+01
9.786976814270019531e+00 0.000000000000000000e+00 1.428808116912841797e+01
1.789376449584960938e+01 0.000000000000000000e+00 3.086201095581054688e+01
8.242884635925292969e+00 0.000000000000000000e+00 1.231982707977294922e+01
8.242884635925292969e+00 0.000000000000000000e+00 1.231982707977294922e+01
1.434756374359130859e+01 0.000000000000000000e+00 2.817984771728515625e+01
1.888180541992187500e+01 0.000000000000000000e+00 3.658311843872070312e+01
1.651136016845703125e+01 0.000000000000000000e+00 2.441177368164062500e+01
1.302046871185302734e+01 0.000000000000000000e+00 1.332969570159912109e+01
1.302046871185302734e+01 0.000000000000000000e+00 1.332969570159912109e+01
9.278922080993652344e+00 0.000000000000000000e+00 8.222430229187011719e+00
1.034169292449951172e+01 0.000000000000000000e+00 1.697810745239257812e+01
2.003511238098144531e+01 0.000000000000000000e+00 1.331199455261230469e+01
2.003511238098144531e+01 0.000000000000000000e+00 1.331199455261230469e+01
2.499578094482421875e+01 0.000000000000000000e+00 2.134896469116210938e+01
2.698235321044921875e+01 0.000000000000000000e+00 2.524384689331054688e+01
1.971621704101562500e+01 0.000000000000000000e+00 1.307773208618164062e+01
1.506571483612060547e+01 0.000000000000000000e+00 9.661445617675781250e+00
1.861289978027343750e+01 0.000000000000000000e+00 1.346486282348632812e+01
9.250088691711425781e+00 0.000000000000000000e+00 5.389250755310058594e+00
7.024176597595214844e+00 0.000000000000000000e+00 7.062614440917968750e+00
1.352025508880615234e+01 0.000000000000000000e+00 1.067049312591552734e+01
8.677155494689941406e+00 0.000000000000000000e+00 1.040253353118896484e+01
1.623374176025390625e+01 0.000000000000000000e+00 1.581886100769042969e+01
7.579220771789550781e+00 0.000000000000000000e+00 1.921773195266723633e+00
9.580818176269531250e+00 0.000000000000000000e+00 1.836815834045410156e+00
8.643718719482421875e+00 0.000000000000000000e+00 4.236921072006225586e-01
8.643718719482421875e+00 0.000000000000000000e+00 4.236921072006225586e-01
8.657025337219238281e+00 0.000000000000000000e+00 2.004759073257446289e+00
8.657025337219238281e+00 0.000000000000000000e+00 2.004759073257446289e+00
9.116978645324707031e+00 0.000000000000000000e+00 2.924040555953979492e+00
1.364143180847167969e+01 0.000000000000000000e+00 8.615159034729003906e+00
1.731492996215820312e+01 0.000000000000000000e+00 1.131373214721679688e+01
8.914157867431640625e+00 0.000000000000000000e+00 1.936121940612792969e+00
1.300180244445800781e+01 0.000000000000000000e+00 8.150089263916015625e+00
1.300180244445800781e+01 0.000000000000000000e+00 8.150089263916015625e+00
1.814207458496093750e+01 0.000000000000000000e+00 1.647601509094238281e+01
2.137927627563476562e+01 0.000000000000000000e+00 2.088545227050781250e+01
1.642532920837402344e+01 0.000000000000000000e+00 2.815955352783203125e+01
1.642532920837402344e+01 0.000000000000000000e+00 2.815955352783203125e+01
3.000153350830078125e+01 0.000000000000000000e+00 5.652832794189453125e+01
2.571426391601562500e+01 0.000000000000000000e+00 4.756966781616210938e+01
2.571426391601562500e+01 0.000000000000000000e+00 4.756966781616210938e+01
3.850173568725585938e+01 0.000000000000000000e+00 7.429030609130859375e+01
2.666437911987304688e+01 0.000000000000000000e+00 8.986776733398437500e+01
2.666437911987304688e+01 0.000000000000000000e+00 8.986776733398437500e+01
2.914258384704589844e+01 0.000000000000000000e+00 9.487559509277343750e+01
1.195772838592529297e+01 0.000000000000000000e+00 1.545511054992675781e+01
1.195772838592529297e+01 0.000000000000000000e+00 1.545511054992675781e+01
2.494501495361328125e+01 0.000000000000000000e+00 5.674160385131835938e+01
4.272530364990234375e+01 0.000000000000000000e+00 8.311585235595703125e+01
4.585840988159179688e+01 0.000000000000000000e+00 8.966278076171875000e+01
2.267375946044921875e+01 0.000000000000000000e+00 9.606635284423828125e+01
1.437744808197021484e+01 0.000000000000000000e+00 1.825955581665039062e+01
3.514265823364257812e+01 0.000000000000000000e+00 6.665661621093750000e+01
1.950908660888671875e+01 0.000000000000000000e+00 2.288983154296875000e+01
2.129210090637207031e+01 0.000000000000000000e+00 1.697418403625488281e+01
1.424705410003662109e+01 0.000000000000000000e+00 1.860655593872070312e+01
1.793051910400390625e+01 0.000000000000000000e+00 3.587929153442382812e+01
1.793051910400390625e+01 0.000000000000000000e+00 3.587929153442382812e+01
3.404272460937500000e+01 0.000000000000000000e+00 7.654853057861328125e+01
2.585416412353515625e+01 0.000000000000000000e+00 6.394890975952148438e+01
1.035564708709716797e+01 0.000000000000000000e+00 2.161954879760742188e+01
1.035564708709716797e+01 0.000000000000000000e+00 2.161954879760742188e+01
1.621128654479980469e+01 0.000000000000000000e+00 2.771229171752929688e+01
1.288871002197265625e+01 0.000000000000000000e+00 1.829330635070800781e+01
2.335480690002441406e+01 0.000000000000000000e+00 3.194039726257324219e+01
2.101675224304199219e+01 0.000000000000000000e+00 2.257187652587890625e+01
4.545012474060058594e+00 0.000000000000000000e+00 4.569446945190429688e+01
1.153226470947265625e+01 0.000000000000000000e+00 1.793502807617187500e+01
1.421450328826904297e+01 0.000000000000000000e+00 1.482230663299560547e+01
1.903704643249511719e+01 0.000000000000000000e+00 3.361698532104492188e+01
1.595594787597656250e+01 0.000000000000000000e+00 2.949533462524414062e+01
1.595594787597656250e+01 0.000000000000000000e+00 2.949533462524414062e+01
1.070516872406005859e+01 0.000000000000000000e+00 3.238936614990234375e+01
4.295336246490478516e+00 0.000000000000000000e+00 1.750523567199707031e+00
6.789040565490722656e+00 0.000000000000000000e+00 4.714751243591308594e+00
2.288618087768554688e+01 0.000000000000000000e+00 1.579653739929199219e+01
1.434472846984863281e+01 0.000000000000000000e+00 9.911018371582031250e+00
1.863042640686035156e+01 0.000000000000000000e+00 1.250413036346435547e+01
1.078087711334228516e+01 0.000000000000000000e+00 9.784640312194824219e+00
2.303936243057250977e+00 0.000000000000000000e+00 8.058472633361816406e+00
7.233223915100097656e+00 0.000000000000000000e+00 7.224238395690917969e+00
7.233223915100097656e+00 0.000000000000000000e+00 7.224238395690917969e+00
2.244079208374023438e+01 0.000000000000000000e+00 1.754706192016601562e+01
1.594186687469482422e+01 0.000000000000000000e+00 1.030507183074951172e+01
1.760896301269531250e+01 0.000000000000000000e+00 1.152973079681396484e+01
1.760896301269531250e+01 0.000000000000000000e+00 1.152973079681396484e+01
1.015611934661865234e+01 0.000000000000000000e+00 5.140357017517089844e+00
2.209161949157714844e+01 0.000000000000000000e+00 1.482271766662597656e+01
1.363797283172607422e+01 0.000000000000000000e+00 8.612617492675781250e+00
1.611485290527343750e+01 0.000000000000000000e+00 1.043214797973632812e+01
8.146716117858886719e+00 0.000000000000000000e+00 1.144211959838867188e+01
1.593892097473144531e+01 0.000000000000000000e+00 1.030290794372558594e+01
1.330806159973144531e+01 0.000000000000000000e+00 8.410901069641113281e+00
1.501394271850585938e+01 0.000000000000000000e+00 1.058899784088134766e+01
1.796672058105468750e+01 0.000000000000000000e+00 1.179254150390625000e+01
1.115157604217529297e+01 0.000000000000000000e+00 1.359116268157958984e+01
1.250367259979248047e+01 0.000000000000000000e+00 7.780543327331542969e+00
1.250367259979248047e+01 0.000000000000000000e+00 7.780543327331542969e+00
9.744474411010742188e+00 0.000000000000000000e+00 3.122387886047363281e+00
2.216367149353027344e+01 0.000000000000000000e+00 2.037417030334472656e+01
1.201474285125732422e+01 0.000000000000000000e+00 7.960163116455078125e+00
1.275439167022705078e+01 0.000000000000000000e+00 1.137315273284912109e+01
1.171038532257080078e+01 0.000000000000000000e+00 1.139276695251464844e+01
1.171038532257080078e+01 0.000000000000000000e+00 1.139276695251464844e+01
4.981365203857421875e+00 0.000000000000000000e+00 2.700080394744873047e+00
1.466504192352294922e+01 0.000000000000000000e+00 2.707079315185546875e+01
1.466504192352294922e+01 0.000000000000000000e+00 2.707079315185546875e+01
1.203560829162597656e+01 0.000000000000000000e+00 1.629484367370605469e+01
1.203560829162597656e+01 0.000000000000000000e+00 1.629484367370605469e+01
1.059865856170654297e+01 0.000000000000000000e+00 1.598416709899902344e+01
2.845848846435546875e+01 0.000000000000000000e+00 4.822600936889648438e+01
2.913037872314453125e+01 0.000000000000000000e+00 4.951057052612304688e+01
2.308678817749023438e+01 0.000000000000000000e+00 3.702974319458007812e+01
2.308678817749023438e+01 0.000000000000000000e+00 3.702974319458007812e+01
1.967403030395507812e+01 0.000000000000000000e+00 2.242173194885253906e+01
3.243640136718750000e+01 0.000000000000000000e+00 2.841963005065917969e+01
2.623035812377929688e+01 0.000000000000000000e+00 1.786305999755859375e+01
2.623035812377929688e+01 0.000000000000000000e+00 1.786305999755859375e+01
6.455387115478515625e+00 0.000000000000000000e+00 1.732225418090820312e+01
6.284953117370605469e+00 0.000000000000000000e+00 1.575766849517822266e+01
6.284953117370605469e+00 0.000000000000000000e+00 1.575766849517822266e+01
1.212072181701660156e+01 0.000000000000000000e+00 9.724336624145507812e+00
2.591096496582031250e+01 0.000000000000000000e+00 5.920386886596679688e+01
2.930425262451171875e+01 0.000000000000000000e+00 2.554352188110351562e+01
2.930425262451171875e+01 0.000000000000000000e+00 2.554352188110351562e+01
1.469123649597167969e+01 0.000000000000000000e+00 6.514266967773437500e+00
1.444481182098388672e+01 0.000000000000000000e+00 6.647327423095703125e+00
1.444481182098388672e+01 0.000000000000000000e+00 6.647327423095703125e+00
7.423550128936767578e+00 0.000000000000000000e+00 6.669876098632812500e+00
1.649509429931640625e+01 0.000000000000000000e+00 4.733166885375976562e+01
1.649509429931640625e+01 0.000000000000000000e+00 4.733166885375976562e+01
1.870760345458984375e+01 0.000000000000000000e+00 5.758970260620117188e+01
1.482700443267822266e+01 0.000000000000000000e+00 1.391719722747802734e+01
1.306328868865966797e+01 0.000000000000000000e+00 1.105997848510742188e+01
1.319058895111083984e+01 0.000000000000000000e+00 1.908255195617675781e+01
1.319058895111083984e+01 0.000000000000000000e+00 1.908255195617675781e+01
5.860888481140136719e+00 0.000000000000000000e+00 2.026536226272583008e+00
5.264609336853027344e+00 0.000000000000000000e+00 9.890332221984863281e+00
5.264609336853027344e+00 0.000000000000000000e+00 9.890332221984863281e+00
1.073659229278564453e+01 0.000000000000000000e+00 7.002696990966796875e+00
7.397519111633300781e+00 0.000000000000000000e+00 4.564907073974609375e+00
5.892807960510253906e+00 0.000000000000000000e+00 3.334649324417114258e+00
5.892807960510253906e+00 0.000000000000000000e+00 3.334649324417114258e+00
1.281353569030761719e+01 0.000000000000000000e+00 8.832143783569335938e+00
5.465656280517578125e+00 0.000000000000000000e+00 6.754254341125488281e+00
7.105576515197753906e+00 0.000000000000000000e+00 4.791026115417480469e+00
9.150156974792480469e+00 0.000000000000000000e+00 4.834223747253417969e+00
9.150156974792480469e+00 0.000000000000000000e+00 4.834223747253417969e+00
8.760224342346191406e+00 0.000000000000000000e+00 3.946382999420166016e-01
1.406367874145507812e+01 0.000000000000000000e+00 9.750781059265136719e+00
2.032603073120117188e+01 0.000000000000000000e+00 1.367154788970947266e+01
1.290434932708740234e+01 0.000000000000000000e+00 1.198257732391357422e+01
1.213767528533935547e+01 0.000000000000000000e+00 5.854273796081542969e+00
1.820079040527343750e+01 0.000000000000000000e+00 1.569919872283935547e+01
1.445586681365966797e+01 0.000000000000000000e+00 9.324942588806152344e+00
1.445586681365966797e+01 0.000000000000000000e+00 9.324942588806152344e+00
1.419758796691894531e+01 0.000000000000000000e+00 1.179207706451416016e+01
1.318580150604248047e+01 0.000000000000000000e+00 1.082896614074707031e+01
1.318580150604248047e+01 0.000000000000000000e+00 1.082896614074707031e+01
1.357249927520751953e+01 0.000000000000000000e+00 9.224959373474121094e+00
1.087877941131591797e+01 0.000000000000000000e+00 8.861506462097167969e+00
1.810582923889160156e+01 0.000000000000000000e+00 1.376665782928466797e+01
7.088342666625976562e+00 0.000000000000000000e+00 4.851822853088378906e+00
4.803941726684570312e+00 0.000000000000000000e+00 4.346796035766601562e+00
4.803941726684570312e+00 0.000000000000000000e+00 4.346796035766601562e+00
1.398297595977783203e+01 0.000000000000000000e+00 7.082536697387695312e+00
1.035086727142333984e+01 0.000000000000000000e+00 8.624431610107421875e+00
1.424865150451660156e+01 0.000000000000000000e+00 7.940131187438964844e+00
1.279265499114990234e+01 0.000000000000000000e+00 1.353943920135498047e+01
1.401546382904052734e+01 0.000000000000000000e+00 2.239728546142578125e+01
3.271017456054687500e+01 0.000000000000000000e+00 2.574039840698242188e+01
3.271017456054687500e+01 0.000000000000000000e+00 2.574039840698242188e+01
2.212830734252929688e+01 0.000000000000000000e+00 3.378499984741210938e+01
1.911116600036621094e+01 0.000000000000000000e+00 1.552111911773681641e+01
1.537635517120361328e+01 0.000000000000000000e+00 1.645522880554199219e+01
1.537635517120361328e+01 0.000000000000000000e+00 1.645522880554199219e+01
1.550288486480712891e+01 0.000000000000000000e+00 1.588309001922607422e+01
1.550288486480712891e+01 0.000000000000000000e+00 1.588309001922607422e+01
1.633377456665039062e+01 0.000000000000000000e+00 1.475631046295166016e+01
1.749005508422851562e+01 0.000000000000000000e+00 1.309406852722167969e+01
1.620897293090820312e+01 0.000000000000000000e+00 2.471851921081542969e+01
1.898816680908203125e+01 0.000000000000000000e+00 7.875147247314453125e+01
8.029375076293945312e+00 0.000000000000000000e+00 1.430889225006103516e+01
2.181529998779296875e+01 0.000000000000000000e+00 3.609874343872070312e+01
2.440402984619140625e+01 0.000000000000000000e+00 3.637873458862304688e+01
2.440402984619140625e+01 0.000000000000000000e+00 3.637873458862304688e+01
1.509705352783203125e+01 0.000000000000000000e+00 1.667136383056640625e+01
1.583760738372802734e+01 0.000000000000000000e+00 1.972951889038085938e+01
1.583760738372802734e+01 0.000000000000000000e+00 1.972951889038085938e+01
1.898560333251953125e+01 0.000000000000000000e+00 2.441001129150390625e+01
1.343858242034912109e+01 0.000000000000000000e+00 2.156920242309570312e+01
2.058318710327148438e+01 0.000000000000000000e+00 1.766070556640625000e+01
2.078773689270019531e+01 0.000000000000000000e+00 3.554003143310546875e+01
6.985845088958740234e+00 0.000000000000000000e+00 8.434848785400390625e+00
1.873833537101745605e+00 0.000000000000000000e+00 8.384771347045898438e+00
1.873833537101745605e+00 0.000000000000000000e+00 8.384771347045898438e+00
1.962528800964355469e+01 0.000000000000000000e+00 3.484617233276367188e+01
9.113171577453613281e+00 0.000000000000000000e+00 3.613679885864257812e+01
3.505606651306152344e-01 0.000000000000000000e+00 1.829564666748046875e+01
8.454693794250488281e+00 0.000000000000000000e+00 1.404519271850585938e+01
8.454693794250488281e+00 0.000000000000000000e+00 1.404519271850585938e+01
8.738251686096191406e+00 0.000000000000000000e+00 3.928921937942504883e+00
7.178074836730957031e+00 0.000000000000000000e+00 1.257742595672607422e+01
1.455710124969482422e+01 0.000000000000000000e+00 1.381008529663085938e+01
1.444368171691894531e+01 0.000000000000000000e+00 9.204495429992675781e+00
1.444368171691894531e+01 0.000000000000000000e+00 9.204495429992675781e+00
1.546485233306884766e+01 0.000000000000000000e+00 9.363308906555175781e+00
1.861881446838378906e+01 0.000000000000000000e+00 1.667892456054687500e+01
1.287012195587158203e+01 0.000000000000000000e+00 8.048549652099609375e+00
1.287012195587158203e+01 0.000000000000000000e+00 8.048549652099609375e+00
2.307514190673828125e+01 0.000000000000000000e+00 1.769087219238281250e+01
8.387083053588867188e+00 0.000000000000000000e+00 1.192202806472778320e+00
1.104671382904052734e+01 0.000000000000000000e+00 8.484564781188964844e+00
1.104671382904052734e+01 0.000000000000000000e+00 8.484564781188964844e+00
1.056854248046875000e+01 0.000000000000000000e+00 8.767570495605468750e+00
1.167002105712890625e+01 0.000000000000000000e+00 4.585184097290039062e+00
1.185903835296630859e+01 0.000000000000000000e+00 7.987566947937011719e+00
4.072198867797851562e+00 0.000000000000000000e+00 1.027743434906005859e+01
4.072198867797851562e+00 0.000000000000000000e+00 1.027743434906005859e+01
1.032555294036865234e+01 0.000000000000000000e+00 1.541348648071289062e+01
8.355034828186035156e+00 0.000000000000000000e+00 7.677231788635253906e+00
8.355034828186035156e+00 0.000000000000000000e+00 7.677231788635253906e+00
1.888321685791015625e+01 0.000000000000000000e+00 1.570240306854248047e+01
1.546288585662841797e+01 0.000000000000000000e+00 8.567349433898925781e+00
1.546288585662841797e+01 0.000000000000000000e+00 8.567349433898925781e+00
1.370612621307373047e+01 0.000000000000000000e+00 1.466798496246337891e+01
1.116260242462158203e+01 0.000000000000000000e+00 6.794195175170898438e+00
6.386006355285644531e+00 0.000000000000000000e+00 7.255807876586914062e+00
1.514682865142822266e+01 0.000000000000000000e+00 8.005652427673339844e+00
1.514682865142822266e+01 0.000000000000000000e+00 8.005652427673339844e+00
5.624231338500976562e+00 0.000000000000000000e+00 3.482298851013183594e+00
5.624231338500976562e+00 0.000000000000000000e+00 3.482298851013183594e+00
4.860854148864746094e+00 0.000000000000000000e+00 2.164891719818115234e+00
8.207574844360351562e+00 0.000000000000000000e+00 3.155428171157836914e+00
9.995614051818847656e+00 0.000000000000000000e+00 6.045355796813964844e+00
9.995614051818847656e+00 0.000000000000000000e+00 6.045355796813964844e+00
1.201559352874755859e+01 0.000000000000000000e+00 8.636900901794433594e+00
4.196854591369628906e+00 0.000000000000000000e+00 7.399086952209472656e+00
1.429447078704833984e+01 0.000000000000000000e+00 6.042750358581542969e+00
1.429447078704833984e+01 0.000000000000000000e+00 6.042750358581542969e+00
1.212761211395263672e+01 0.000000000000000000e+00 3.322150468826293945e+00
1.794725036621093750e+01 0.000000000000000000e+00 1.588949871063232422e+01
1.687071609497070312e+01 0.000000000000000000e+00 1.236105442047119141e+01
7.498394966125488281e+00 0.000000000000000000e+00 4.726863861083984375e+00
1.594289302825927734e+01 0.000000000000000000e+00 3.371886825561523438e+01
1.594289302825927734e+01 0.000000000000000000e+00 3.371886825561523438e+01
8.390835762023925781e+00 0.000000000000000000e+00 5.656699180603027344e+00
8.390835762023925781e+00 0.000000000000000000e+00 5.656699180603027344e+00
7.140433788299560547e+00 0.000000000000000000e+00 8.957114219665527344e+00
2.584426116943359375e+01 0.000000000000000000e+00 4.784130859375000000e+01
2.413422393798828125e+01 0.000000000000000000e+00 4.426802062988281250e+01
2.393515205383300781e+01 0.000000000000000000e+00 5.106868362426757812e+01
2.393515205383300781e+01 0.000000000000000000e+00 5.106868362426757812e+01
3.077861976623535156e+01 0.000000000000000000e+00 5.815212249755859375e+01
3.064399909973144531e+01 0.000000000000000000e+00 5.787081909179687500e+01
3.397034454345703125e+01 0.000000000000000000e+00 6.482153320312500000e+01
1.740780830383300781e+00 0.000000000000000000e+00 1.442650222778320312e+01
1.740780830383300781e+00 0.000000000000000000e+00 1.442650222778320312e+01
1.469774532318115234e+01 0.000000000000000000e+00 4.020116043090820312e+01
1.793035507202148438e+01 0.000000000000000000e+00 2.804520034790039062e+01
3.811759948730468750e+01 0.000000000000000000e+00 1.042874374389648438e+02
2.314242362976074219e+01 0.000000000000000000e+00 2.662046623229980469e+01
2.314242362976074219e+01 0.000000000000000000e+00 2.662046623229980469e+01
3.267827987670898438e+01 0.000000000000000000e+00 6.040579986572265625e+01
2.942431068420410156e+01 0.000000000000000000e+00 4.464704513549804688e+01
1.842463302612304688e+01 0.000000000000000000e+00 4.175541687011718750e+01
8.860422134399414062e+00 0.000000000000000000e+00 1.235195636749267578e+01
2.241779708862304688e+01 0.000000000000000000e+00 4.068138504028320312e+01
6.240267753601074219e+00 0.000000000000000000e+00 6.876893043518066406e+00
1.025773906707763672e+01 0.000000000000000000e+00 3.965652942657470703e+00
5.100146293640136719e+00 0.000000000000000000e+00 4.549679756164550781e+00
1.213104248046875000e+01 0.000000000000000000e+00 9.182134628295898438e+00
1.219718265533447266e+01 0.000000000000000000e+00 2.868529891967773438e+01
1.460524177551269531e+01 0.000000000000000000e+00 1.268749237060546875e+01
2.364390563964843750e+01 0.000000000000000000e+00 2.211923599243164062e+01
2.364390563964843750e+01 0.000000000000000000e+00 2.211923599243164062e+01
2.041776657104492188e+01 0.000000000000000000e+00 1.928936958312988281e+01
3.933331298828125000e+01 0.000000000000000000e+00 2.806680679321289062e+01
1.816309356689453125e+01 0.000000000000000000e+00 1.674550628662109375e+01
